Data from QEP037381__26__14-39-22-805.txt Node

Date: Mon Mar 14 14:39:22 EDT 2022
User: dcclab
Spectrometer: QEP03738
Trigger mode: 4
Integration Time (sec): 2.500000E0
Scans to average: 1
Electric dark correction enabled: true
Nonlinearity correction enabled: false
Boxcar width: 0
XAxis mode: Wavelengths
Number of Pixels in Spectrum: 1044
>>>>>Begin Spectral Data<<<<<
783.959	11.25
784.218	-1.75
784.476	-1.75
784.734	-5.75
784.992	305.25
785.251	297.25
785.509	282.25
785.767	285.25
786.025	296.25
786.283	289.25
786.541	302.25
786.798	290.25
787.056	295.25
787.314	272.25
787.572	288.25
787.83	291.25
788.087	299.25
788.345	288.25
788.602	292.25
788.86	297.25
789.117	305.25
789.375	300.25
789.632	308.25
789.89	298.25
790.147	311.25
790.404	314.25
790.661	322.25
790.919	330.25
791.176	327.25
791.433	342.25
791.69	350.25
791.947	351.25
792.204	353.25
792.461	375.25
792.718	362.25
792.974	391.25
793.231	394.25
793.488	430.25
793.745	423.25
794.001	453.25
794.258	482.25
794.514	479.25
794.771	520.25
795.027	527.25
795.284	553.25
795.54	591.25
795.797	629.25
796.053	677.25
796.309	728.25
796.565	805.25
796.822	888.25
797.078	1009.25
797.334	1172.25
797.59	1382.25
797.846	1756.25
798.102	2246.25
798.358	3026.25
798.614	4334.25
798.869	6238.25
799.125	9313.25
799.381	13624.25
799.637	19343.25
799.892	26216.25
800.148	33889.25
800.403	41420.25
800.659	47958.25
800.914	53192.25
801.17	56337.25
801.425	58816.25
801.68	60606.25
801.936	61693.25
802.191	62958.25
802.446	64468.25
802.701	65897.25
802.957	67187.25
803.212	68498.25
803.467	69881.25
803.722	71350.25
803.977	72591.25
804.232	73851.25
804.486	75249.25
804.741	76682.25
804.996	78285.25
805.251	79622.25
805.505	80903.25
805.76	82361.25
806.015	83654.25
806.269	84583.25
806.524	85585.25
806.778	86398.25
807.033	86844.25
807.287	87780.25
807.541	89252.25
807.796	90425.25
808.05	91534.25
808.304	92321.25
808.558	92858.25
808.812	93580.25
809.066	94382.25
809.32	94895.25
809.574	95622.25
809.828	96197.25
810.082	96838.25
810.336	97600.25
810.59	98538.25
810.844	99817.25
811.097	100882.25
811.351	102651.25
811.605	104081.25
811.858	105839.25
812.112	107412.25
812.365	109071.25
812.619	110910.25
812.872	112292.25
813.126	113931.25
813.379	115318.25
813.632	116576.25
813.885	118220.25
814.139	119977.25
814.392	121716.25
814.645	123570.25
814.898	125822.25
815.151	128314.25
815.404	130350.25
815.657	132613.25
815.91	134428.25
816.163	136340.25
816.416	137876.25
816.668	138606.25
816.921	139388.25
817.174	139690.25
817.426	139681.25
817.679	139759.25
817.931	139590.25
818.184	139663.25
818.436	139521.25
818.689	139716.25
818.941	140087.25
819.194	140474.25
819.446	141272.25
819.698	141749.25
819.95	142590.25
820.202	143160.25
820.455	143503.25
820.707	144106.25
820.959	143953.25
821.211	144090.25
821.462	144005.25
821.714	143560.25
821.966	143290.25
822.218	142591.25
822.47	142142.25
822.722	141268.25
822.973	141103.25
823.225	140332.25
823.476	140198.25
823.728	140049.25
823.979	140251.25
824.231	140224.25
824.482	140555.25
824.734	140670.25
824.985	140282.25
825.236	140575.25
825.487	139969.25
825.739	139689.25
825.99	139165.25
826.241	138373.25
826.492	137904.25
826.743	137339.25
826.994	136744.25
827.245	136176.25
827.496	136011.25
827.747	135899.25
827.997	135884.25
828.248	136076.25
828.499	136022.25
828.75	135967.25
829	136388.25
829.251	136194.25
829.501	135950.25
829.752	135451.25
830.002	134438.25
830.253	133547.25
830.503	132780.25
830.753	132167.25
831.004	131253.25
831.254	130681.25
831.504	130779.25
831.754	130073.25
832.004	130093.25
832.254	130222.25
832.504	130216.25
832.754	130044.25
833.004	130147.25
833.254	129956.25
833.504	129530.25
833.754	129363.25
834.003	128939.25
834.253	128370.25
834.503	127708.25
834.752	127076.25
835.002	126166.25
835.252	125708.25
835.501	125148.25
835.75	124709.25
836	124475.25
836.249	124242.25
836.499	124366.25
836.748	123947.25
836.997	124271.25
837.246	124372.25
837.495	124550.25
837.744	125045.25
837.993	125390.25
838.242	125429.25
838.491	125267.25
838.74	123980.25
838.989	122683.25
839.238	122060.25
839.487	121139.25
839.736	120391.25
839.984	119752.25
840.233	119184.25
840.482	118832.25
840.73	118222.25
840.979	117927.25
841.227	117709.25
841.476	117261.25
841.724	116893.25
841.972	116744.25
842.221	116082.25
842.469	116060.25
842.717	115436.25
842.965	115202.25
843.213	114653.25
843.461	114312.25
843.71	113823.25
843.958	113171.25
844.205	113021.25
844.453	112788.25
844.701	112857.25
844.949	112475.25
845.197	112329.25
845.445	112411.25
845.692	112790.25
845.94	112945.25
846.188	112712.25
846.435	112437.25
846.683	112133.25
846.93	111962.25
847.178	111388.25
847.425	110334.25
847.672	109865.25
847.92	108926.25
848.167	107837.25
848.414	106765.25
848.661	105969.25
848.908	105272.25
849.155	104873.25
849.402	104877.25
849.649	104843.25
849.896	105171.25
850.143	105937.25
850.39	106007.25
850.637	106042.25
850.884	106010.25
851.131	105690.25
851.377	105390.25
851.624	105285.25
851.87	104764.25
852.117	104175.25
852.364	103447.25
852.61	103177.25
852.856	102814.25
853.103	102368.25
853.349	102094.25
853.595	101360.25
853.842	101038.25
854.088	100534.25
854.334	100888.25
854.58	100819.25
854.826	100321.25
855.072	99805.25
855.318	98983.25
855.564	97955.25
855.81	97262.25
856.056	96500.25
856.302	95594.25
856.548	94824.25
856.793	94584.25
857.039	93850.25
857.285	93774.25
857.53	93646.25
857.776	93585.25
858.021	93768.25
858.267	94255.25
858.512	94484.25
858.758	94514.25
859.003	94629.25
859.248	94618.25
859.493	94667.25
859.739	94429.25
859.984	93814.25
860.229	93362.25
860.474	92860.25
860.719	92175.25
860.964	91831.25
861.209	91254.25
861.454	90748.25
861.699	89988.25
861.943	89531.25
862.188	89268.25
862.433	88963.25
862.678	88591.25
862.922	88480.25
863.167	88226.25
863.411	87957.25
863.656	87888.25
863.9	87831.25
864.145	87174.25
864.389	86640.25
864.634	86464.25
864.878	85841.25
865.122	85717.25
865.366	85404.25
865.61	85409.25
865.855	85279.25
866.099	84686.25
866.343	84784.25
866.587	84528.25
866.831	84452.25
867.074	84213.25
867.318	84337.25
867.562	84164.25
867.806	83991.25
868.05	83938.25
868.293	83820.25
868.537	83733.25
868.78	83379.25
869.024	82844.25
869.267	82054.25
869.511	81820.25
869.754	80964.25
869.998	80430.25
870.241	79541.25
870.484	78638.25
870.728	78489.25
870.971	78082.25
871.214	77775.25
871.457	77348.25
871.7	77523.25
871.943	77523.25
872.186	77452.25
872.429	77641.25
872.672	77646.25
872.915	77443.25
873.158	77294.25
873.4	77304.25
873.643	77284.25
873.886	76763.25
874.128	76638.25
874.371	76337.25
874.613	76175.25
874.856	75846.25
875.098	75628.25
875.341	75312.25
875.583	75170.25
875.825	74857.25
876.068	74488.25
876.31	73966.25
876.552	73406.25
876.794	72780.25
877.036	72245.25
877.278	71636.25
877.52	71418.25
877.762	71086.25
878.004	70837.25
878.246	70584.25
878.488	70319.25
878.73	70347.25
878.972	70112.25
879.213	70215.25
879.455	70000.25
879.697	69630.25
879.938	69621.25
880.18	69436.25
880.421	69154.25
880.663	69106.25
880.904	69050.25
881.145	68832.25
881.387	69183.25
881.628	68977.25
881.869	68700.25
882.11	68488.25
882.352	68273.25
882.593	67926.25
882.834	67873.25
883.075	67694.25
883.316	67401.25
883.557	67327.25
883.797	66931.25
884.038	66379.25
884.279	65734.25
884.52	64914.25
884.761	64408.25
885.001	63855.25
885.242	63322.25
885.482	63119.25
885.723	62764.25
885.963	62666.25
886.204	62072.25
886.444	62130.25
886.685	61841.25
886.925	61562.25
887.165	61370.25
887.405	61070.25
887.646	60616.25
887.886	60582.25
888.126	60447.25
888.366	60522.25
888.606	60372.25
888.846	60853.25
889.086	60815.25
889.326	61061.25
889.565	60784.25
889.805	60666.25
890.045	60679.25
890.285	60274.25
890.524	60086.25
890.764	59807.25
891.003	59490.25
891.243	58715.25
891.482	58388.25
891.722	57829.25
891.961	57442.25
892.201	57252.25
892.44	56603.25
892.679	56213.25
892.918	56348.25
893.158	56154.25
893.397	55906.25
893.636	55531.25
893.875	55505.25
894.114	55253.25
894.353	55093.25
894.592	54879.25
894.831	54521.25
895.069	54269.25
895.308	54068.25
895.547	53488.25
895.786	53303.25
896.024	53080.25
896.263	53055.25
896.501	52927.25
896.74	52909.25
896.978	52779.25
897.217	52685.25
897.455	52491.25
897.694	52456.25
897.932	52273.25
898.17	51935.25
898.408	51765.25
898.646	51619.25
898.885	51420.25
899.123	51036.25
899.361	50763.25
899.599	50427.25
899.837	50111.25
900.075	49910.25
900.312	49460.25
900.55	49133.25
900.788	48659.25
901.026	48156.25
901.263	47763.25
901.501	47459.25
901.739	47212.25
901.976	46903.25
902.214	46598.25
902.451	46398.25
902.689	46508.25
902.926	46265.25
903.163	46368.25
903.401	46310.25
903.638	46382.25
903.875	46403.25
904.112	46137.25
904.349	46095.25
904.586	46058.25
904.823	45832.25
905.06	45462.25
905.297	45167.25
905.534	44805.25
905.771	44480.25
906.008	44190.25
906.245	43919.25
906.481	43695.25
906.718	43485.25
906.955	43353.25
907.191	43192.25
907.428	42823.25
907.664	42671.25
907.901	42716.25
908.137	42509.25
908.374	42481.25
908.61	42299.25
908.846	42035.25
909.083	41674.25
909.319	41572.25
909.555	41234.25
909.791	40754.25
910.027	40480.25
910.263	40042.25
910.499	40115.25
910.735	39668.25
910.971	39370.25
911.207	39031.25
911.443	38829.25
911.678	38660.25
911.914	38400.25
912.15	38423.25
912.385	38310.25
912.621	38241.25
912.857	38296.25
913.092	38205.25
913.328	38064.25
913.563	38252.25
913.798	38135.25
914.034	38059.25
914.269	37899.25
914.504	37789.25
914.739	37650.25
914.975	37326.25
915.21	36999.25
915.445	36787.25
915.68	36492.25
915.915	36159.25
916.15	35883.25
916.384	35293.25
916.619	35015.25
916.854	34786.25
917.089	34544.25
917.324	34425.25
917.558	34078.25
917.793	33779.25
918.028	33657.25
918.262	33726.25
918.497	33581.25
918.731	33609.25
918.965	33418.25
919.2	33399.25
919.434	33557.25
919.668	33302.25
919.903	33187.25
920.137	33107.25
920.371	32970.25
920.605	32580.25
920.839	32378.25
921.073	32151.25
921.307	31876.25
921.541	31707.25
921.775	31510.25
922.009	31441.25
922.243	31392.25
922.476	31305.25
922.71	31196.25
922.944	31148.25
923.177	30911.25
923.411	31116.25
923.644	31148.25
923.878	31017.25
924.111	30874.25
924.345	30687.25
924.578	30496.25
924.811	30452.25
925.045	30215.25
925.278	29969.25
925.511	29828.25
925.744	29545.25
925.977	29294.25
926.21	29216.25
926.443	28853.25
926.676	28690.25
926.909	28551.25
927.142	28271.25
927.375	28172.25
927.608	27879.25
927.841	27684.25
928.073	27597.25
928.306	27425.25
928.539	27449.25
928.771	27453.25
929.004	27448.25
929.236	27440.25
929.469	27424.25
929.701	27501.25
929.933	27463.25
930.166	27442.25
930.398	27439.25
930.63	27387.25
930.862	27260.25
931.094	27125.25
931.327	27010.25
931.559	26778.25
931.791	26702.25
932.023	26415.25
932.255	26313.25
932.486	26002.25
932.718	25922.25
932.95	25558.25
933.182	25610.25
933.413	25458.25
933.645	25265.25
933.877	25258.25
934.108	25034.25
934.34	24961.25
934.571	24764.25
934.803	24727.25
935.034	24760.25
935.265	24562.25
935.497	24562.25
935.728	24414.25
935.959	24424.25
936.19	24140.25
936.422	24084.25
936.653	23956.25
936.884	23847.25
937.115	23540.25
937.346	23496.25
937.577	23340.25
937.807	23190.25
938.038	23123.25
938.269	23036.25
938.5	22847.25
938.73	22962.25
938.961	22937.25
939.192	22899.25
939.422	22878.25
939.653	22760.25
939.883	22735.25
940.114	22595.25
940.344	22562.25
940.574	22543.25
940.805	22335.25
941.035	22353.25
941.265	22071.25
941.495	21922.25
941.726	21913.25
941.956	21699.25
942.186	21537.25
942.416	21321.25
942.646	21192.25
942.876	21082.25
943.105	20820.25
943.335	20763.25
943.565	20631.25
943.795	20228.25
944.024	20223.25
944.254	20114.25
944.484	20048.25
944.713	19995.25
944.943	19746.25
945.172	19766.25
945.402	19653.25
945.631	19669.25
945.86	19680.25
946.09	19580.25
946.319	19542.25
946.548	19554.25
946.777	19562.25
947.006	19409.25
947.235	19353.25
947.465	19262.25
947.694	18996.25
947.922	19006.25
948.151	18788.25
948.38	18685.25
948.609	18599.25
948.838	18425.25
949.067	18373.25
949.295	18243.25
949.524	18151.25
949.752	17984.25
949.981	17883.25
950.21	17788.25
950.438	17770.25
950.666	17620.25
950.895	17406.25
951.123	17364.25
951.351	17243.25
951.58	17178.25
951.808	17099.25
952.036	16987.25
952.264	16877.25
952.492	16853.25
952.72	16734.25
952.948	16761.25
953.176	16557.25
953.404	16356.25
953.632	16236.25
953.86	16039.25
954.088	15992.25
954.315	15982.25
954.543	15751.25
954.771	15691.25
954.998	15621.25
955.226	15600.25
955.453	15563.25
955.681	15504.25
955.908	15457.25
956.135	15389.25
956.363	15382.25
956.59	15363.25
956.817	15326.25
957.045	15287.25
957.272	15160.25
957.499	15066.25
957.726	15057.25
957.953	15001.25
958.18	14876.25
958.407	14852.25
958.634	14775.25
958.861	14664.25
959.087	14566.25
959.314	14495.25
959.541	14354.25
959.767	14252.25
959.994	14151.25
960.221	14071.25
960.447	13887.25
960.674	13784.25
960.9	13715.25
961.127	13640.25
961.353	13534.25
961.579	13376.25
961.806	13387.25
962.032	13226.25
962.258	13231.25
962.484	13081.25
962.71	13097.25
962.936	13156.25
963.162	13043.25
963.388	12931.25
963.614	12982.25
963.84	12922.25
964.066	12901.25
964.292	12889.25
964.518	12828.25
964.743	12699.25
964.969	12730.25
965.195	12616.25
965.42	12554.25
965.646	12442.25
965.871	12423.25
966.097	12377.25
966.322	12304.25
966.547	12221.25
966.773	12254.25
966.998	12098.25
967.223	12066.25
967.448	11991.25
967.674	11906.25
967.899	11845.25
968.124	11772.25
968.349	11745.25
968.574	11599.25
968.799	11619.25
969.024	11476.25
969.248	11499.25
969.473	11340.25
969.698	11303.25
969.923	11264.25
970.147	11234.25
970.372	11095.25
970.596	11082.25
970.821	10953.25
971.046	10957.25
971.27	10849.25
971.494	10767.25
971.719	10705.25
971.943	10660.25
972.167	10552.25
972.392	10452.25
972.616	10455.25
972.84	10433.25
973.064	10303.25
973.288	10236.25
973.512	10242.25
973.736	10214.25
973.96	10193.25
974.184	10078.25
974.408	10097.25
974.631	10094.25
974.855	10022.25
975.079	9965.25
975.303	9891.25
975.526	9856.25
975.75	9899.25
975.973	9695.25
976.197	9677.25
976.42	9697.25
976.644	9662.25
976.867	9589.25
977.09	9515.25
977.313	9429.25
977.537	9378.25
977.76	9310.25
977.983	9303.25
978.206	9179.25
978.429	9141.25
978.652	9076.25
978.875	9058.25
979.098	8960.25
979.321	8912.25
979.544	8797.25
979.767	8816.25
979.989	8737.25
980.212	8640.25
980.435	8572.25
980.657	8535.25
980.88	8534.25
981.102	8479.25
981.325	8439.25
981.547	8409.25
981.77	8333.25
981.992	8261.25
982.214	8305.25
982.437	8209.25
982.659	8179.25
982.881	8195.25
983.103	8117.25
983.325	8066.25
983.547	8002.25
983.769	8041.25
983.991	7961.25
984.213	7902.25
984.435	7916.25
984.657	7847.25
984.879	7819.25
985.1	7764.25
985.322	7749.25
985.544	7640.25
985.765	7678.25
985.987	7605.25
986.208	7525.25
986.43	7546.25
986.651	7476.25
986.873	7441.25
987.094	7365.25
987.315	7311.25
987.536	7272.25
987.758	7285.25
987.979	7163.25
988.2	7185.25
988.421	7094.25
988.642	7062.25
988.863	6941.25
989.084	6925.25
989.305	6952.25
989.526	6824.25
989.747	6841.25
989.967	6776.25
990.188	6754.25
990.409	6689.25
990.629	6646.25
990.85	6530.25
991.071	6483.25
991.291	6504.25
991.512	6400.25
991.732	6397.25
991.952	6372.25
992.173	6357.25
992.393	6373.25
992.613	6311.25
992.834	6329.25
993.054	6307.25
993.274	6260.25
993.494	6152.25
993.714	6247.25
993.934	6171.25
994.154	6174.25
994.374	6147.25
994.594	6086.25
994.813	6129.25
995.033	6105.25
995.253	6030.25
995.473	5984.25
995.692	5948.25
995.912	5905.25
996.131	5879.25
996.351	5850.25
996.57	5789.25
996.79	5729.25
997.009	5670.25
997.228	5651.25
997.448	5573.25
997.667	5497.25
997.886	5466.25
998.105	5413.25
998.325	5322.25
998.544	5372.25
998.763	5258.25
998.982	5337.25
999.201	5258.25
999.419	5185.25
999.638	5190.25
999.857	5165.25
1000.076	5108.25
1000.295	5062.25
1000.513	5121.25
1000.732	5079.25
1000.95	5029.25
1001.169	5056.25
1001.388	5026.25
1001.606	4970.25
1001.824	4879.25
1002.043	4882.25
1002.261	4849.25
1002.479	4874.25
1002.698	4874.25
1002.916	4804.25
1003.134	4810.25
1003.352	4783.25
1003.57	4763.25
1003.788	4730.25
1004.006	4686.25
1004.224	4631.25
1004.442	4669.25
1004.66	4641.25
1004.878	4569.25
1005.095	4550.25
1005.313	4570.25
1005.531	4542.25
1005.748	4522.25
1005.966	4546.25
1006.184	4466.25
1006.401	4427.25
1006.618	4425.25
1006.836	4355.25
1007.053	4372.25
1007.271	4357.25
1007.488	4285.25
1007.705	4355.25
1007.922	4306.25
1008.139	4305.25
1008.357	4329.25
1008.574	4245.25
1008.791	4278.25
1009.008	4316.25
1009.225	4286.25
1009.441	4336.25
1009.658	4340.25
1009.875	4328.25
1010.092	4242.25
1010.309	4247.25
1010.525	4169.25
1010.742	4154.25
1010.958	4139.25
1011.175	4062.25
1011.391	4057.25
1011.608	3986.25
1011.824	3953.25
1012.041	3894.25
1012.257	3916.25
1012.473	3864.25
1012.689	3836.25
1012.906	3780.25
1013.122	3807.25
1013.338	3765.25
1013.554	3779.25
1013.77	3766.25
1013.986	3800.25
1014.202	3813.25
1014.418	3828.25
1014.634	3879.25
1014.849	3906.25
1015.065	3877.25
1015.281	3925.25
1015.496	3898.25
1015.712	3840.25
1015.928	3809.25
1016.143	3740.25
1016.359	3703.25
1016.574	3661.25
1016.79	3608.25
1017.005	3524.25
1017.22	3502.25
1017.435	3432.25
1017.651	3359.25
1017.866	3296.25
1018.081	3269.25
1018.296	3194.25
1018.511	3175.25
1018.726	3142.25
1018.941	3108.25
1019.156	3082.25
1019.371	3056.25
1019.586	3042.25
1019.801	3002.25
1020.015	2963.25
1020.23	2980.25
1020.445	2957.25
1020.659	2918.25
1020.874	2888.25
1021.088	2871.25
1021.303	2819.25
1021.517	2823.25
1021.732	2746.25
1021.946	2689.25
1022.16	2684.25
1022.375	2665.25
1022.589	2665.25
1022.803	2613.25
1023.017	2528.25
1023.231	2524.25
1023.445	2509.25
1023.659	2438.25
1023.873	2385.25
1024.087	2332.25
1024.301	2307.25
1024.515	2241.25
1024.729	2232.25
1024.942	2182.25
1025.156	2153.25
1025.37	2121.25
1025.583	2071.25
1025.797	2056.25
1026.01	1986.25
1026.224	1927.25
1026.437	1906.25
1026.651	1833.25
1026.864	1762.25
1027.077	1747.25
1027.291	1705.25
1027.504	1661.25
1027.717	1567.25
1027.93	1546.25
1028.143	1544.25
1028.356	1480.25
1028.569	1426.25
1028.782	1326.25
1028.995	-0.75
1029.208	-1.75
1029.421	-0.75
1029.634	1.25
