Data from QEP037381__24__14-39-17-762.txt Node

Date: Mon Mar 14 14:39:17 EDT 2022
User: dcclab
Spectrometer: QEP03738
Trigger mode: 4
Integration Time (sec): 2.500000E0
Scans to average: 1
Electric dark correction enabled: true
Nonlinearity correction enabled: false
Boxcar width: 0
XAxis mode: Wavelengths
Number of Pixels in Spectrum: 1044
>>>>>Begin Spectral Data<<<<<
783.959	13
784.218	-1
784.476	-1
784.734	-4
784.992	304
785.251	300
785.509	298
785.767	303
786.025	316
786.283	305
786.541	320
786.798	313
787.056	309
787.314	293
787.572	317
787.83	309
788.087	319
788.345	305
788.602	306
788.86	325
789.117	333
789.375	316
789.632	321
789.89	332
790.147	340
790.404	331
790.661	334
790.919	365
791.176	344
791.433	372
791.69	367
791.947	371
792.204	373
792.461	393
792.718	407
792.974	407
793.231	422
793.488	469
793.745	450
794.001	480
794.258	523
794.514	507
794.771	551
795.027	563
795.284	575
795.54	645
795.797	669
796.053	737
796.309	780
796.565	876
796.822	963
797.078	1095
797.334	1263
797.59	1488
797.846	1884
798.102	2443
798.358	3274
798.614	4708
798.869	6849
799.125	10197
799.381	14822
799.637	21014
799.892	28587
800.148	36872
800.403	44987
800.659	52063
800.914	57546
801.17	61278
801.425	63796
801.68	65640
801.936	67317
802.191	68406
802.446	69868
802.701	71591
802.957	72937
803.212	74478
803.467	75962
803.722	77470
803.977	78772
804.232	80231
804.486	81679
804.741	83282
804.996	85013
805.251	86225
805.505	87723
805.76	89380
806.015	90689
806.269	91623
806.524	92838
806.778	93432
807.033	94375
807.287	95382
807.541	96616
807.796	98076
808.05	99352
808.304	100147
808.558	100596
808.812	101210
809.066	102091
809.32	102841
809.574	103585
809.828	104395
810.082	104905
810.336	105924
810.59	106846
810.844	108293
811.097	109509
811.351	111122
811.605	112814
811.858	114664
812.112	116338
812.365	118214
812.619	120172
812.872	121507
813.126	123118
813.379	124798
813.632	126379
813.885	127900
814.139	129798
814.392	131791
814.645	133890
814.898	136201
815.151	138248
815.404	140661
815.657	143286
815.91	145493
816.163	147417
816.416	148692
816.668	149804
816.921	150668
817.174	150720
817.426	150935
817.679	150891
817.931	150501
818.184	150457
818.436	150882
818.689	151049
818.941	151100
819.194	151838
819.446	151979
819.698	153086
819.95	153757
820.202	154472
820.455	155060
820.707	155454
820.959	155635
821.211	155599
821.462	155363
821.714	155091
821.966	154509
822.218	153787
822.47	152981
822.722	152459
822.973	152212
823.225	151363
823.476	151302
823.728	151182
823.979	151220
824.231	151293
824.482	151330
824.734	151579
824.985	151424
825.236	151193
825.487	151106
825.739	150299
825.99	149671
826.241	149240
826.492	148459
826.743	147928
826.994	147414
827.245	146900
827.496	146431
827.747	146217
827.997	146405
828.248	146475
828.499	146663
828.75	146308
829	146599
829.251	146574
829.501	146123
829.752	145659
830.002	145089
830.253	143508
830.503	142653
830.753	141836
831.004	141287
831.254	140441
831.504	140110
831.754	139861
832.004	140225
832.254	140038
832.504	140118
832.754	140026
833.004	139648
833.254	139731
833.504	139444
833.754	138966
834.003	138659
834.253	138007
834.503	137295
834.752	136630
835.002	135619
835.252	134911
835.501	134337
835.75	134243
836	133675
836.249	133798
836.499	133504
836.748	133482
836.997	133364
837.246	133402
837.495	133771
837.744	134398
837.993	134561
838.242	134624
838.491	134237
838.74	133004
838.989	131650
839.238	130916
839.487	129976
839.736	129571
839.984	128466
840.233	127897
840.482	127355
840.73	127125
840.979	126503
841.227	126120
841.476	125805
841.724	125653
841.972	125042
842.221	124478
842.469	124401
842.717	123787
842.965	123339
843.213	123088
843.461	122666
843.71	121715
843.958	121507
844.205	121256
844.453	120807
844.701	120934
844.949	120836
845.197	120570
845.445	120596
845.692	120545
845.94	120767
846.188	120845
846.435	120656
846.683	120186
846.93	119928
847.178	119276
847.425	118140
847.672	117460
847.92	116759
848.167	115593
848.414	114432
848.661	113472
848.908	112864
849.155	112364
849.402	112254
849.649	112273
849.896	112628
850.143	113244
850.39	113448
850.637	113394
850.884	113486
851.131	113201
851.377	113127
851.624	112432
851.87	112216
852.117	111216
852.364	110409
852.61	110196
852.856	109591
853.103	109312
853.349	109069
853.595	108445
853.842	107643
854.088	107511
854.334	107848
854.58	107645
854.826	107381
855.072	106429
855.318	106122
855.564	104895
855.81	103708
856.056	103037
856.302	102256
856.548	101205
856.793	100945
857.039	100281
857.285	100135
857.53	99560
857.776	100292
858.021	100217
858.267	100807
858.512	100879
858.758	100824
859.003	100982
859.248	101288
859.493	101030
859.739	100615
859.984	100059
860.229	99867
860.474	98809
860.719	98519
860.964	98015
861.209	97402
861.454	96751
861.699	96048
861.943	95486
862.188	95328
862.433	94800
862.678	94589
862.922	94298
863.167	94065
863.411	93594
863.656	93560
863.9	93373
864.145	92741
864.389	92384
864.634	92017
864.878	91651
865.122	91468
865.366	91195
865.61	91037
865.855	90750
866.099	90461
866.343	90370
866.587	90270
866.831	89953
867.074	89884
867.318	89816
867.562	89707
867.806	89578
868.05	89467
868.293	89350
868.537	88937
868.78	88818
869.024	88249
869.267	87496
869.511	86982
869.754	86522
869.998	85648
870.241	84796
870.484	83953
870.728	83788
870.971	83220
871.214	82794
871.457	82545
871.7	82553
871.943	82498
872.186	82710
872.429	82836
872.672	82791
872.915	82552
873.158	82418
873.4	82141
873.643	82010
873.886	81916
874.128	81483
874.371	81248
874.613	81000
874.856	80643
875.098	80518
875.341	80196
875.583	80202
875.825	79750
876.068	79364
876.31	78789
876.552	77962
876.794	77307
877.036	76634
877.278	76307
877.52	76084
877.762	75584
878.004	75527
878.246	75138
878.488	74981
878.73	74817
878.972	74621
879.213	74638
879.455	74479
879.697	74422
879.938	73941
880.18	73854
880.421	73427
880.663	73512
880.904	73286
881.145	73039
881.387	73140
881.628	73298
881.869	73240
882.11	72968
882.352	72572
882.593	72426
882.834	72507
883.075	72001
883.316	71636
883.557	71318
883.797	71124
884.038	70643
884.279	69832
884.52	69032
884.761	68538
885.001	67991
885.242	67646
885.482	67078
885.723	66856
885.963	66498
886.204	66112
886.444	65896
886.685	65777
886.925	65459
887.165	65111
887.405	64958
887.646	64501
887.886	64381
888.126	64227
888.366	64259
888.606	64370
888.846	64532
889.086	64624
889.326	64512
889.565	64683
889.805	64446
890.045	64323
890.285	64116
890.524	63925
890.764	63558
891.003	63108
891.243	62551
891.482	61916
891.722	61547
891.961	61062
892.201	60609
892.44	60225
892.679	59877
892.918	59598
893.158	59448
893.397	59235
893.636	59179
893.875	58878
894.114	58891
894.353	58380
894.592	58188
894.831	57832
895.069	57546
895.308	57343
895.547	56825
895.786	56577
896.024	56650
896.263	56430
896.501	56248
896.74	56175
896.978	56048
897.217	56086
897.455	55660
897.694	55732
897.932	55509
898.17	55219
898.408	54964
898.646	54767
898.885	54519
899.123	54316
899.361	53837
899.599	53522
899.837	53292
900.075	52808
900.312	52565
900.55	52083
900.788	51616
901.026	51143
901.263	50810
901.501	50352
901.739	50040
901.976	49854
902.214	49514
902.451	49320
902.689	49229
902.926	49277
903.163	49192
903.401	49328
903.638	49372
903.875	49262
904.112	49120
904.349	48948
904.586	48852
904.823	48661
905.06	48292
905.297	47889
905.534	47496
905.771	47277
906.008	46912
906.245	46740
906.481	46497
906.718	46286
906.955	45993
907.191	45771
907.428	45646
907.664	45270
907.901	45169
908.137	45058
908.374	44812
908.61	44835
908.846	44589
909.083	44342
909.319	43996
909.555	43604
909.791	43357
910.027	43013
910.263	42689
910.499	42438
910.735	41932
910.971	41703
911.207	41394
911.443	41219
911.678	40922
911.914	40900
912.15	40749
912.385	40585
912.621	40702
912.857	40645
913.092	40280
913.328	40345
913.563	40494
913.798	40342
914.034	40256
914.269	40185
914.504	40000
914.739	39993
914.975	39634
915.21	39289
915.445	39094
915.68	38687
915.915	38373
916.15	37956
916.384	37555
916.619	37045
916.854	36873
917.089	36593
917.324	36580
917.558	36108
917.793	35868
918.028	35788
918.262	35568
918.497	35538
918.731	35480
918.965	35347
919.2	35531
919.434	35319
919.668	35286
919.903	35256
920.137	35052
920.371	34815
920.605	34496
920.839	34356
921.073	34024
921.307	33803
921.541	33562
921.775	33408
922.009	33283
922.243	33215
922.476	33236
922.71	33191
922.944	33095
923.177	32844
923.411	32784
923.644	32749
923.878	32730
924.111	32590
924.345	32482
924.578	32367
924.811	32150
925.045	31927
925.278	31760
925.511	31411
925.744	31259
925.977	31120
926.21	30741
926.443	30567
926.676	30256
926.909	30275
927.142	29894
927.375	29690
927.608	29620
927.841	29250
928.073	29202
928.306	29102
928.539	29030
928.771	29046
929.004	28995
929.236	29126
929.469	29030
929.701	29093
929.933	29191
930.166	29017
930.398	28887
930.63	28987
930.862	28971
931.094	28663
931.327	28502
931.559	28239
931.791	28074
932.023	27984
932.255	27876
932.486	27355
932.718	27259
932.95	27103
933.182	26964
933.413	26974
933.645	26719
933.877	26675
934.108	26428
934.34	26401
934.571	26273
934.803	26163
935.034	26001
935.265	25951
935.497	25898
935.728	25861
935.959	25693
936.19	25521
936.422	25458
936.653	25260
936.884	25108
937.115	24942
937.346	24855
937.577	24651
937.807	24495
938.038	24349
938.269	24364
938.5	24324
938.73	24258
938.961	24212
939.192	24132
939.422	23956
939.653	24067
939.883	24065
940.114	23993
940.344	23946
940.574	23821
940.805	23666
941.035	23617
941.265	23354
941.495	23287
941.726	22980
941.956	22976
942.186	22704
942.416	22487
942.646	22370
942.876	22204
943.105	22073
943.335	21801
943.565	21726
943.795	21408
944.024	21447
944.254	21188
944.484	21134
944.713	20957
944.943	20970
945.172	20876
945.402	20654
945.631	20680
945.86	20676
946.09	20694
946.319	20607
946.548	20547
946.777	20597
947.006	20410
947.235	20426
947.465	20237
947.694	20161
947.922	20027
948.151	19824
948.38	19725
948.609	19591
948.838	19444
949.067	19394
949.295	19156
949.524	18963
949.752	19039
949.981	18816
950.21	18714
950.438	18650
950.666	18533
950.895	18344
951.123	18330
951.351	18183
951.58	18006
951.808	17969
952.036	17963
952.264	17799
952.492	17694
952.72	17681
952.948	17575
953.176	17370
953.404	17293
953.632	17233
953.86	16973
954.088	16834
954.315	16762
954.543	16624
954.771	16545
954.998	16459
955.226	16394
955.453	16441
955.681	16220
955.908	16197
956.135	16205
956.363	16093
956.59	16118
956.817	16095
957.045	16001
957.272	15952
957.499	15919
957.726	15779
957.953	15809
958.18	15650
958.407	15602
958.634	15538
958.861	15451
959.087	15309
959.314	15091
959.541	15207
959.767	14952
959.994	14825
960.221	14800
960.447	14670
960.674	14504
960.9	14429
961.127	14321
961.353	14299
961.579	14090
961.806	14099
962.032	14004
962.258	13878
962.484	13832
962.71	13740
962.936	13684
963.162	13668
963.388	13668
963.614	13672
963.84	13545
964.066	13479
964.292	13486
964.518	13469
964.743	13384
964.969	13337
965.195	13263
965.42	13172
965.646	13176
965.871	13042
966.097	13041
966.322	12978
966.547	12817
966.773	12738
966.998	12691
967.223	12636
967.448	12556
967.674	12530
967.899	12434
968.124	12397
968.349	12300
968.574	12195
968.799	12171
969.024	12082
969.248	12029
969.473	11956
969.698	11961
969.923	11833
970.147	11782
970.372	11638
970.596	11624
970.821	11525
971.046	11422
971.27	11336
971.494	11323
971.719	11245
971.943	11147
972.167	11106
972.392	11005
972.616	10913
972.84	10841
973.064	10822
973.288	10785
973.512	10701
973.736	10684
973.96	10659
974.184	10611
974.408	10528
974.631	10532
974.855	10462
975.079	10452
975.303	10376
975.526	10350
975.75	10304
975.973	10284
976.197	10203
976.42	10133
976.644	10089
976.867	10074
977.09	10005
977.313	9968
977.537	9847
977.76	9776
977.983	9704
978.206	9669
978.429	9550
978.652	9514
978.875	9413
979.098	9331
979.321	9331
979.544	9242
979.767	9199
979.989	9138
980.212	9040
980.435	9036
980.657	8940
980.88	8949
981.102	8916
981.325	8836
981.547	8795
981.77	8701
981.992	8694
982.214	8693
982.437	8614
982.659	8562
982.881	8548
983.103	8508
983.325	8542
983.547	8458
983.769	8346
983.991	8389
984.213	8308
984.435	8233
984.657	8205
984.879	8186
985.1	8122
985.322	8079
985.544	7984
985.765	8040
985.987	7953
986.208	7871
986.43	7945
986.651	7837
986.873	7752
987.094	7739
987.315	7679
987.536	7652
987.758	7626
987.979	7517
988.2	7502
988.421	7419
988.642	7391
988.863	7358
989.084	7221
989.305	7267
989.526	7214
989.747	7124
989.967	7066
990.188	7064
990.409	6970
990.629	6928
990.85	6937
991.071	6830
991.291	6782
991.512	6760
991.732	6717
991.952	6676
992.173	6571
992.393	6635
992.613	6564
992.834	6618
993.054	6498
993.274	6534
993.494	6468
993.714	6519
993.934	6504
994.154	6488
994.374	6427
994.594	6339
994.813	6352
995.033	6319
995.253	6308
995.473	6280
995.692	6200
995.912	6155
996.131	6125
996.351	6128
996.57	6009
996.79	5974
997.009	5924
997.228	5893
997.448	5816
997.667	5788
997.886	5696
998.105	5664
998.325	5603
998.544	5586
998.763	5546
998.982	5469
999.201	5467
999.419	5404
999.638	5428
999.857	5400
1000.076	5341
1000.295	5359
1000.513	5301
1000.732	5259
1000.95	5211
1001.169	5260
1001.388	5217
1001.606	5146
1001.824	5145
1002.043	5120
1002.261	5093
1002.479	5098
1002.698	5008
1002.916	5022
1003.134	4957
1003.352	4961
1003.57	4939
1003.788	4945
1004.006	4868
1004.224	4882
1004.442	4835
1004.66	4837
1004.878	4814
1005.095	4743
1005.313	4759
1005.531	4711
1005.748	4685
1005.966	4752
1006.184	4628
1006.401	4642
1006.618	4609
1006.836	4575
1007.053	4563
1007.271	4537
1007.488	4505
1007.705	4521
1007.922	4481
1008.139	4434
1008.357	4448
1008.574	4454
1008.791	4516
1009.008	4449
1009.225	4464
1009.441	4535
1009.658	4488
1009.875	4485
1010.092	4446
1010.309	4437
1010.525	4371
1010.742	4277
1010.958	4254
1011.175	4223
1011.391	4203
1011.608	4173
1011.824	4128
1012.041	4087
1012.257	4049
1012.473	3979
1012.689	3985
1012.906	3963
1013.122	3913
1013.338	3887
1013.554	3920
1013.77	3934
1013.986	3920
1014.202	3936
1014.418	3971
1014.634	4039
1014.849	4023
1015.065	4045
1015.281	4060
1015.496	4010
1015.712	3996
1015.928	3991
1016.143	3884
1016.359	3795
1016.574	3744
1016.79	3676
1017.005	3646
1017.22	3593
1017.435	3516
1017.651	3492
1017.866	3398
1018.081	3344
1018.296	3327
1018.511	3288
1018.726	3268
1018.941	3206
1019.156	3184
1019.371	3182
1019.586	3170
1019.801	3138
1020.015	3100
1020.23	3089
1020.445	3037
1020.659	3015
1020.874	3007
1021.088	2948
1021.303	2912
1021.517	2897
1021.732	2877
1021.946	2833
1022.16	2832
1022.375	2770
1022.589	2776
1022.803	2704
1023.017	2655
1023.231	2586
1023.445	2586
1023.659	2469
1023.873	2488
1024.087	2404
1024.301	2356
1024.515	2352
1024.729	2273
1024.942	2245
1025.156	2250
1025.37	2214
1025.583	2125
1025.797	2122
1026.01	2092
1026.224	2004
1026.437	1990
1026.651	1885
1026.864	1821
1027.077	1806
1027.291	1746
1027.504	1717
1027.717	1670
1027.93	1621
1028.143	1584
1028.356	1521
1028.569	1460
1028.782	1365
1028.995	-4
1029.208	-1
1029.421	-2
1029.634	0
