Data from QEP037381__23__14-39-15-263.txt Node

Date: Mon Mar 14 14:39:15 EDT 2022
User: dcclab
Spectrometer: QEP03738
Trigger mode: 4
Integration Time (sec): 2.500000E0
Scans to average: 1
Electric dark correction enabled: true
Nonlinearity correction enabled: false
Boxcar width: 0
XAxis mode: Wavelengths
Number of Pixels in Spectrum: 1044
>>>>>Begin Spectral Data<<<<<
783.959	10
784.218	0
784.476	-2
784.734	-4
784.992	319
785.251	316
785.509	307
785.767	303
786.025	302
786.283	318
786.541	312
786.798	307
787.056	311
787.314	296
787.572	320
787.83	304
788.087	319
788.345	306
788.602	324
788.86	315
789.117	322
789.375	317
789.632	316
789.89	316
790.147	348
790.404	360
790.661	345
790.919	367
791.176	361
791.433	354
791.69	370
791.947	371
792.204	369
792.461	388
792.718	405
792.974	412
793.231	423
793.488	475
793.745	453
794.001	483
794.258	516
794.514	525
794.771	538
795.027	570
795.284	596
795.54	638
795.797	677
796.053	728
796.309	803
796.565	859
796.822	980
797.078	1096
797.334	1282
797.59	1516
797.846	1891
798.102	2462
798.358	3317
798.614	4687
798.869	6837
799.125	10256
799.381	14887
799.637	21053
799.892	28868
800.148	37164
800.403	45320
800.659	52406
800.914	57954
801.17	61599
801.425	64105
801.68	65868
801.936	67631
802.191	68961
802.446	70508
802.701	71928
802.957	73490
803.212	74998
803.467	76499
803.722	77948
803.977	79541
804.232	80592
804.486	82531
804.741	83903
804.996	85415
805.251	87193
805.505	88304
805.76	89868
806.015	91451
806.269	92488
806.524	93527
806.778	94357
807.033	95027
807.287	96106
807.541	97619
807.796	98838
808.05	100013
808.304	100969
808.558	101359
808.812	102163
809.066	102977
809.32	103533
809.574	104276
809.828	104726
810.082	105768
810.336	106556
810.59	107549
810.844	108873
811.097	110042
811.351	111929
811.605	113377
811.858	115490
812.112	117156
812.365	119191
812.619	120842
812.872	122528
813.126	124189
813.379	125646
813.632	127290
813.885	128829
814.139	130742
814.392	132869
814.645	134941
814.898	137270
815.151	139415
815.404	142011
815.657	144332
815.91	146487
816.163	148203
816.416	149790
816.668	150881
816.921	151632
817.174	151863
817.426	151692
817.679	152000
817.931	151714
818.184	151653
818.436	151548
818.689	151950
818.941	152157
819.194	152881
819.446	153323
819.698	154506
819.95	154540
820.202	155453
820.455	155966
820.707	156229
820.959	156651
821.211	156528
821.462	156441
821.714	156070
821.966	155718
822.218	154857
822.47	153641
822.722	153421
822.973	153132
823.225	152445
823.476	152099
823.728	152062
823.979	152086
824.231	152290
824.482	152440
824.734	152585
824.985	152233
825.236	152456
825.487	151832
825.739	151400
825.99	150705
826.241	150176
826.492	149365
826.743	148967
826.994	148280
827.245	147570
827.496	147433
827.747	147232
827.997	147312
828.248	147315
828.499	147234
828.75	147543
829	147572
829.251	147463
829.501	147038
829.752	146747
830.002	145873
830.253	145043
830.503	143771
830.753	142918
831.004	142098
831.254	141420
831.504	141256
831.754	140849
832.004	140953
832.254	140827
832.504	140935
832.754	140667
833.004	140671
833.254	140097
833.504	140442
833.754	139808
834.003	139632
834.253	138993
834.503	138181
834.752	137287
835.002	136656
835.252	135807
835.501	135322
835.75	134816
836	134723
836.249	134564
836.499	134447
836.748	134521
836.997	134095
837.246	134170
837.495	134622
837.744	134972
837.993	135436
838.242	135471
838.491	135169
838.74	133604
838.989	132543
839.238	131821
839.487	130844
839.736	130073
839.984	129411
840.233	128739
840.482	128058
840.73	127779
840.979	127159
841.227	127148
841.476	126340
841.724	126343
841.972	125945
842.221	125560
842.469	125000
842.717	124548
842.965	124048
843.213	123523
843.461	123436
843.71	122727
843.958	122251
844.205	121934
844.453	121779
844.701	121808
844.949	121363
845.197	121322
845.445	121335
845.692	121525
845.94	121522
846.188	121560
846.435	121154
846.683	120936
846.93	120523
847.178	119732
847.425	119083
847.672	118294
847.92	117121
848.167	116124
848.414	114991
848.661	114119
848.908	113398
849.155	113001
849.402	112913
849.649	112772
849.896	113257
850.143	113682
850.39	114363
850.637	114345
850.884	114168
851.131	114166
851.377	113618
851.624	112973
851.87	112664
852.117	111906
852.364	111148
852.61	111107
852.856	110548
853.103	110017
853.349	109589
853.595	108927
853.842	108683
854.088	108201
854.334	108427
854.58	108272
854.826	107820
855.072	107387
855.318	106517
855.564	105427
855.81	104565
856.056	103683
856.302	102643
856.548	102099
856.793	101505
857.039	100976
857.285	100684
857.53	100441
857.776	100617
858.021	100989
858.267	101387
858.512	101472
858.758	101384
859.003	101386
859.248	101743
859.493	101667
859.739	101411
859.984	100748
860.229	100304
860.474	99646
860.719	99217
860.964	98325
861.209	98058
861.454	97697
861.699	96766
861.943	96116
862.188	95821
862.433	95428
862.678	95117
862.922	94878
863.167	94715
863.411	94285
863.656	94021
863.9	93927
864.145	93646
864.389	92904
864.634	92536
864.878	92287
865.122	91845
865.366	91899
865.61	91531
865.855	91388
866.099	91052
866.343	91037
866.587	90415
866.831	90579
867.074	90665
867.318	90236
867.562	90446
867.806	90041
868.05	90228
868.293	90038
868.537	89454
868.78	89345
869.024	88904
869.267	88126
869.511	87469
869.754	86795
869.998	86057
870.241	85287
870.484	84394
870.728	84111
870.971	83795
871.214	83440
871.457	82854
871.7	82761
871.943	82889
872.186	83054
872.429	83110
872.672	83074
872.915	82986
873.158	82888
873.4	82803
873.643	82581
873.886	82125
874.128	82002
874.371	81665
874.613	81551
874.856	81166
875.098	80725
875.341	80683
875.583	80306
875.825	80332
876.068	79741
876.31	79160
876.552	78558
876.794	77850
877.036	77113
877.278	76506
877.52	76579
877.762	75918
878.004	75719
878.246	75459
878.488	75418
878.73	75254
878.972	75176
879.213	75007
879.455	74826
879.697	74577
879.938	74520
880.18	74152
880.421	73947
880.663	73782
880.904	73647
881.145	73446
881.387	73771
881.628	73569
881.869	73658
882.11	73297
882.352	73002
882.593	72761
882.834	72698
883.075	72333
883.316	72132
883.557	71938
883.797	71438
884.038	70976
884.279	70223
884.52	69577
884.761	68945
885.001	68235
885.242	67813
885.482	67464
885.723	67101
885.963	66749
886.204	66542
886.444	66221
886.685	66049
886.925	65952
887.165	65567
887.405	65237
887.646	64962
887.886	64564
888.126	64634
888.366	64711
888.606	64570
888.846	64839
889.086	64938
889.326	65014
889.565	64814
889.805	64804
890.045	64733
890.285	64476
890.524	64268
890.764	63686
891.003	63397
891.243	62702
891.482	62169
891.722	61757
891.961	61280
892.201	60981
892.44	60567
892.679	60191
892.918	59992
893.158	59836
893.397	59751
893.636	59351
893.875	59324
894.114	58944
894.353	58685
894.592	58609
894.831	58244
895.069	57953
895.308	57605
895.547	57301
895.786	56939
896.024	57006
896.263	56957
896.501	56543
896.74	56774
896.978	56358
897.217	56266
897.455	56169
897.694	56001
897.932	55680
898.17	55566
898.408	55269
898.646	55073
898.885	54980
899.123	54593
899.361	54150
899.599	54017
899.837	53607
900.075	53326
900.312	52820
900.55	52249
900.788	51901
901.026	51348
901.263	50972
901.501	50658
901.739	50298
901.976	50173
902.214	49811
902.451	49721
902.689	49490
902.926	49478
903.163	49406
903.401	49608
903.638	49618
903.875	49367
904.112	49474
904.349	49293
904.586	49179
904.823	48986
905.06	48639
905.297	48240
905.534	47857
905.771	47384
906.008	47148
906.245	47037
906.481	46538
906.718	46459
906.955	46194
907.191	46121
907.428	45689
907.664	45614
907.901	45408
908.137	45252
908.374	45187
908.61	44953
908.846	44600
909.083	44540
909.319	44396
909.555	43893
909.791	43596
910.027	43287
910.263	42855
910.499	42708
910.735	42309
910.971	41836
911.207	41695
911.443	41412
911.678	41263
911.914	41061
912.15	40880
912.385	40912
912.621	40804
912.857	40866
913.092	40827
913.328	40456
913.563	40622
913.798	40526
914.034	40494
914.269	40277
914.504	40145
914.739	40015
914.975	39804
915.21	39619
915.445	39280
915.68	38870
915.915	38482
916.15	38078
916.384	37589
916.619	37309
916.854	37084
917.089	36743
917.324	36602
917.558	36268
917.793	35989
918.028	35911
918.262	35844
918.497	35855
918.731	35629
918.965	35729
919.2	35609
919.434	35591
919.668	35597
919.903	35565
920.137	35287
920.371	35086
920.605	34778
920.839	34573
921.073	34102
921.307	33883
921.541	33721
921.775	33537
922.009	33456
922.243	33314
922.476	33280
922.71	33234
922.944	33142
923.177	32983
923.411	33002
923.644	33112
923.878	32948
924.111	32892
924.345	32558
924.578	32538
924.811	32332
925.045	32166
925.278	31879
925.511	31679
925.744	31474
925.977	31275
926.21	31079
926.443	30810
926.676	30450
926.909	30262
927.142	29979
927.375	29833
927.608	29653
927.841	29536
928.073	29282
928.306	29336
928.539	29157
928.771	29213
929.004	29233
929.236	29168
929.469	29138
929.701	29290
929.933	29322
930.166	29128
930.398	29160
930.63	29184
930.862	28953
931.094	28821
931.327	28569
931.559	28476
931.791	28223
932.023	28177
932.255	27925
932.486	27569
932.718	27460
932.95	27163
933.182	27157
933.413	27007
933.645	26777
933.877	26799
934.108	26656
934.34	26644
934.571	26473
934.803	26262
935.034	26217
935.265	26131
935.497	26047
935.728	25888
935.959	25811
936.19	25638
936.422	25430
936.653	25449
936.884	25248
937.115	24981
937.346	24876
937.577	24741
937.807	24570
938.038	24527
938.269	24571
938.5	24461
938.73	24394
938.961	24232
939.192	24352
939.422	24238
939.653	24187
939.883	24106
940.114	24046
940.344	23906
940.574	23930
940.805	23827
941.035	23632
941.265	23488
941.495	23428
941.726	23267
941.956	23113
942.186	22902
942.416	22690
942.646	22547
942.876	22275
943.105	22094
943.335	21983
943.565	21829
943.795	21612
944.024	21425
944.254	21313
944.484	21219
944.713	21028
944.943	21067
945.172	20916
945.402	20905
945.631	20763
945.86	20717
946.09	20738
946.319	20772
946.548	20728
946.777	20653
947.006	20521
947.235	20521
947.465	20338
947.694	20256
947.922	20111
948.151	19975
948.38	19850
948.609	19738
948.838	19530
949.067	19493
949.295	19288
949.524	19226
949.752	19057
949.981	18901
950.21	18763
950.438	18646
950.666	18572
950.895	18511
951.123	18309
951.351	18287
951.58	18172
951.808	17984
952.036	17988
952.264	17854
952.492	17792
952.72	17696
952.948	17652
953.176	17535
953.404	17375
953.632	17221
953.86	17049
954.088	16896
954.315	16873
954.543	16679
954.771	16665
954.998	16568
955.226	16477
955.453	16398
955.681	16372
955.908	16264
956.135	16238
956.363	16329
956.59	16183
956.817	16190
957.045	16191
957.272	16092
957.499	15984
957.726	15913
957.953	15920
958.18	15705
958.407	15638
958.634	15564
958.861	15483
959.087	15393
959.314	15233
959.541	15163
959.767	14996
959.994	14916
960.221	14867
960.447	14692
960.674	14611
960.9	14405
961.127	14372
961.353	14270
961.579	14157
961.806	14118
962.032	13961
962.258	13973
962.484	13912
962.71	13823
962.936	13753
963.162	13712
963.388	13727
963.614	13680
963.84	13624
964.066	13548
964.292	13539
964.518	13523
964.743	13407
964.969	13368
965.195	13364
965.42	13294
965.646	13143
965.871	13097
966.097	13025
966.322	12924
966.547	12915
966.773	12857
966.998	12770
967.223	12671
967.448	12645
967.674	12580
967.899	12466
968.124	12411
968.349	12265
968.574	12332
968.799	12175
969.024	12089
969.248	12120
969.473	11999
969.698	11904
969.923	11893
970.147	11873
970.372	11665
970.596	11716
970.821	11651
971.046	11453
971.27	11469
971.494	11394
971.719	11273
971.943	11194
972.167	11178
972.392	11102
972.616	10950
972.84	10922
973.064	10842
973.288	10716
973.512	10804
973.736	10670
973.96	10754
974.184	10639
974.408	10700
974.631	10599
974.855	10604
975.079	10536
975.303	10464
975.526	10444
975.75	10396
975.973	10329
976.197	10221
976.42	10188
976.644	10147
976.867	10082
977.09	9942
977.313	9994
977.537	9922
977.76	9794
977.983	9785
978.206	9681
978.429	9657
978.652	9546
978.875	9512
979.098	9415
979.321	9379
979.544	9188
979.767	9285
979.989	9154
980.212	9121
980.435	9058
980.657	9073
980.88	8931
981.102	8863
981.325	8844
981.547	8782
981.77	8789
981.992	8797
982.214	8701
982.437	8698
982.659	8634
982.881	8632
983.103	8533
983.325	8490
983.547	8499
983.769	8507
983.991	8377
984.213	8308
984.435	8303
984.657	8227
984.879	8193
985.1	8149
985.322	8094
985.544	8094
985.765	8043
985.987	7991
986.208	7960
986.43	7934
986.651	7892
986.873	7875
987.094	7791
987.315	7693
987.536	7647
987.758	7625
987.979	7541
988.2	7517
988.421	7447
988.642	7436
988.863	7286
989.084	7290
989.305	7275
989.526	7156
989.747	7145
989.967	7088
990.188	6985
990.409	7014
990.629	7010
990.85	6938
991.071	6859
991.291	6884
991.512	6733
991.732	6715
991.952	6661
992.173	6709
992.393	6710
992.613	6658
992.834	6641
993.054	6552
993.274	6591
993.494	6572
993.714	6530
993.934	6507
994.154	6490
994.374	6474
994.594	6365
994.813	6342
995.033	6390
995.253	6352
995.473	6288
995.692	6188
995.912	6252
996.131	6196
996.351	6069
996.57	6080
996.79	5987
997.009	5933
997.228	5910
997.448	5834
997.667	5782
997.886	5760
998.105	5680
998.325	5691
998.544	5622
998.763	5573
998.982	5521
999.201	5479
999.419	5448
999.638	5439
999.857	5401
1000.076	5399
1000.295	5315
1000.513	5284
1000.732	5324
1000.95	5255
1001.169	5290
1001.388	5245
1001.606	5163
1001.824	5126
1002.043	5085
1002.261	5069
1002.479	5115
1002.698	5058
1002.916	5037
1003.134	5025
1003.352	4988
1003.57	4965
1003.788	4921
1004.006	4869
1004.224	4890
1004.442	4845
1004.66	4816
1004.878	4798
1005.095	4801
1005.313	4805
1005.531	4731
1005.748	4704
1005.966	4793
1006.184	4655
1006.401	4636
1006.618	4579
1006.836	4608
1007.053	4576
1007.271	4579
1007.488	4527
1007.705	4531
1007.922	4499
1008.139	4493
1008.357	4494
1008.574	4448
1008.791	4461
1009.008	4518
1009.225	4484
1009.441	4505
1009.658	4465
1009.875	4447
1010.092	4452
1010.309	4416
1010.525	4389
1010.742	4275
1010.958	4265
1011.175	4261
1011.391	4212
1011.608	4202
1011.824	4116
1012.041	4108
1012.257	4100
1012.473	4024
1012.689	4026
1012.906	4017
1013.122	3989
1013.338	3936
1013.554	3929
1013.77	3939
1013.986	3937
1014.202	3960
1014.418	3974
1014.634	4052
1014.849	4025
1015.065	4064
1015.281	4059
1015.496	4046
1015.712	3979
1015.928	3962
1016.143	3890
1016.359	3837
1016.574	3809
1016.79	3691
1017.005	3638
1017.22	3587
1017.435	3521
1017.651	3490
1017.866	3436
1018.081	3377
1018.296	3321
1018.511	3280
1018.726	3289
1018.941	3267
1019.156	3197
1019.371	3180
1019.586	3156
1019.801	3125
1020.015	3062
1020.23	3116
1020.445	3063
1020.659	3046
1020.874	3000
1021.088	2976
1021.303	2930
1021.517	2881
1021.732	2856
1021.946	2834
1022.16	2826
1022.375	2772
1022.589	2769
1022.803	2705
1023.017	2654
1023.231	2600
1023.445	2579
1023.659	2496
1023.873	2433
1024.087	2419
1024.301	2383
1024.515	2352
1024.729	2328
1024.942	2274
1025.156	2242
1025.37	2186
1025.583	2140
1025.797	2100
1026.01	2091
1026.224	2014
1026.437	1962
1026.651	1903
1026.864	1832
1027.077	1847
1027.291	1752
1027.504	1720
1027.717	1678
1027.93	1643
1028.143	1572
1028.356	1519
1028.569	1482
1028.782	1357
1028.995	-4
1029.208	1
1029.421	0
1029.634	-1
