Data from QEP037381__2__14-38-22-761.txt Node

Date: Mon Mar 14 14:38:22 EDT 2022
User: dcclab
Spectrometer: QEP03738
Trigger mode: 4
Integration Time (sec): 2.500000E0
Scans to average: 1
Electric dark correction enabled: true
Nonlinearity correction enabled: false
Boxcar width: 0
XAxis mode: Wavelengths
Number of Pixels in Spectrum: 1044
>>>>>Begin Spectral Data<<<<<
783.959	11.5
784.218	-1.5
784.476	-2.5
784.734	-3.5
784.992	320.5
785.251	311.5
785.509	293.5
785.767	301.5
786.025	309.5
786.283	321.5
786.541	317.5
786.798	323.5
787.056	312.5
787.314	296.5
787.572	311.5
787.83	314.5
788.087	323.5
788.345	323.5
788.602	323.5
788.86	323.5
789.117	331.5
789.375	309.5
789.632	332.5
789.89	340.5
790.147	362.5
790.404	353.5
790.661	342.5
790.919	389.5
791.176	371.5
791.433	363.5
791.69	387.5
791.947	390.5
792.204	389.5
792.461	400.5
792.718	413.5
792.974	423.5
793.231	434.5
793.488	473.5
793.745	462.5
794.001	506.5
794.258	538.5
794.514	526.5
794.771	575.5
795.027	572.5
795.284	614.5
795.54	677.5
795.797	711.5
796.053	756.5
796.309	817.5
796.565	880.5
796.822	1004.5
797.078	1116.5
797.334	1321.5
797.59	1571.5
797.846	1943.5
798.102	2543.5
798.358	3459.5
798.614	4894.5
798.869	7156.5
799.125	10595.5
799.381	15482.5
799.637	22005.5
799.892	29864.5
800.148	38585.5
800.403	47006.5
800.659	54387.5
800.914	60276.5
801.17	64230.5
801.425	66839.5
801.68	68618.5
801.936	70225.5
802.191	71939.5
802.446	73466.5
802.701	74862.5
802.957	76415.5
803.212	77993.5
803.467	79653.5
803.722	81173.5
803.977	82684.5
804.232	84195.5
804.486	85519.5
804.741	87315.5
804.996	88953.5
805.251	90640.5
805.505	91952.5
805.76	93427.5
806.015	94957.5
806.269	96050.5
806.524	97429.5
806.778	97978.5
807.033	98837.5
807.287	99922.5
807.541	101467.5
807.796	102892.5
808.05	103904.5
808.304	104924.5
808.558	105677.5
808.812	106402.5
809.066	107102.5
809.32	107733.5
809.574	108509.5
809.828	109227.5
810.082	109822.5
810.336	110861.5
810.59	112008.5
810.844	113336.5
811.097	114625.5
811.351	116418.5
811.605	118154.5
811.858	119782.5
812.112	122002.5
812.365	124021.5
812.619	125689.5
812.872	127307.5
813.126	128817.5
813.379	130339.5
813.632	132137.5
813.885	133757.5
814.139	135693.5
814.392	137709.5
814.645	140156.5
814.898	142358.5
815.151	144703.5
815.404	147303.5
815.657	149682.5
815.91	152109.5
816.163	153866.5
816.416	155492.5
816.668	156344.5
816.921	157364.5
817.174	157617.5
817.426	157569.5
817.679	157463.5
817.931	157417.5
818.184	157302.5
818.436	157350.5
818.689	157582.5
818.941	157918.5
819.194	158410.5
819.446	159171.5
819.698	159818.5
819.95	160429.5
820.202	160687.5
820.455	161770.5
820.707	162280.5
820.959	162251.5
821.211	162188.5
821.462	162373.5
821.714	161526.5
821.966	161427.5
822.218	160498.5
822.47	159619.5
822.722	159304.5
822.973	158441.5
823.225	158094.5
823.476	157582.5
823.728	157356.5
823.979	157742.5
824.231	157965.5
824.482	157733.5
824.734	158029.5
824.985	157733.5
825.236	157337.5
825.487	157385.5
825.739	157031.5
825.99	156496.5
826.241	155635.5
826.492	154862.5
826.743	153875.5
826.994	153532.5
827.245	152720.5
827.496	152813.5
827.747	152492.5
827.997	152235.5
828.248	152462.5
828.499	152712.5
828.75	152800.5
829	152614.5
829.251	152684.5
829.501	152085.5
829.752	151680.5
830.002	150851.5
830.253	149783.5
830.503	148920.5
830.753	147943.5
831.004	147391.5
831.254	146379.5
831.504	146319.5
831.754	145634.5
832.004	145509.5
832.254	145649.5
832.504	145865.5
832.754	145728.5
833.004	145620.5
833.254	145243.5
833.504	145098.5
833.754	144975.5
834.003	144334.5
834.253	143910.5
834.503	142845.5
834.752	141914.5
835.002	141174.5
835.252	140478.5
835.501	139868.5
835.75	139357.5
836	139251.5
836.249	139055.5
836.499	139090.5
836.748	138701.5
836.997	138672.5
837.246	138893.5
837.495	139148.5
837.744	139828.5
837.993	139771.5
838.242	139900.5
838.491	139336.5
838.74	138244.5
838.989	136752.5
839.238	136005.5
839.487	135143.5
839.736	134618.5
839.984	133815.5
840.233	133240.5
840.482	132495.5
840.73	131765.5
840.979	131656.5
841.227	131176.5
841.476	130490.5
841.724	130389.5
841.972	130212.5
842.221	129559.5
842.469	129372.5
842.717	128605.5
842.965	128324.5
843.213	127841.5
843.461	127149.5
843.71	126865.5
843.958	126270.5
844.205	126075.5
844.453	125619.5
844.701	125438.5
844.949	125704.5
845.197	125285.5
845.445	125305.5
845.692	125499.5
845.94	125535.5
846.188	125401.5
846.435	125231.5
846.683	124989.5
846.93	124373.5
847.178	123861.5
847.425	122959.5
847.672	121959.5
847.92	121085.5
848.167	119724.5
848.414	118933.5
848.661	117908.5
848.908	117001.5
849.155	116642.5
849.402	116426.5
849.649	116652.5
849.896	116891.5
850.143	117564.5
850.39	117921.5
850.637	117995.5
850.884	117858.5
851.131	117354.5
851.377	117022.5
851.624	116885.5
851.87	116168.5
852.117	115527.5
852.364	115040.5
852.61	114472.5
852.856	114128.5
853.103	113331.5
853.349	113114.5
853.595	112788.5
853.842	111837.5
854.088	111797.5
854.334	111956.5
854.58	111793.5
854.826	111445.5
855.072	110802.5
855.318	109915.5
855.564	108724.5
855.81	107798.5
856.056	107080.5
856.302	105963.5
856.548	105237.5
856.793	104553.5
857.039	103991.5
857.285	103894.5
857.53	104014.5
857.776	103975.5
858.021	104064.5
858.267	104446.5
858.512	104716.5
858.758	104680.5
859.003	104594.5
859.248	104642.5
859.493	104825.5
859.739	104505.5
859.984	103923.5
860.229	103391.5
860.474	103058.5
860.719	102230.5
860.964	101485.5
861.209	100943.5
861.454	100350.5
861.699	99703.5
861.943	99083.5
862.188	98930.5
862.433	98351.5
862.678	97840.5
862.922	97872.5
863.167	97829.5
863.411	97213.5
863.656	97137.5
863.9	96712.5
864.145	96394.5
864.389	95468.5
864.634	95391.5
864.878	94979.5
865.122	94636.5
865.366	94553.5
865.61	94375.5
865.855	94361.5
866.099	93780.5
866.343	93735.5
866.587	93488.5
866.831	93262.5
867.074	93253.5
867.318	93168.5
867.562	93129.5
867.806	92744.5
868.05	92762.5
868.293	92396.5
868.537	92475.5
868.78	91792.5
869.024	91523.5
869.267	90763.5
869.511	90081.5
869.754	89548.5
869.998	88442.5
870.241	87473.5
870.484	87428.5
870.728	86603.5
870.971	86270.5
871.214	85963.5
871.457	85533.5
871.7	85389.5
871.943	85445.5
872.186	85505.5
872.429	85838.5
872.672	85520.5
872.915	85607.5
873.158	85168.5
873.4	85217.5
873.643	85146.5
873.886	84648.5
874.128	84434.5
874.371	84355.5
874.613	83889.5
874.856	83607.5
875.098	83312.5
875.341	82906.5
875.583	82730.5
875.825	82368.5
876.068	82184.5
876.31	81444.5
876.552	80710.5
876.794	80084.5
877.036	79446.5
877.278	78740.5
877.52	78807.5
877.762	78375.5
878.004	77932.5
878.246	77763.5
878.488	77657.5
878.73	77585.5
878.972	77326.5
879.213	77316.5
879.455	77189.5
879.697	76879.5
879.938	76635.5
880.18	76336.5
880.421	76238.5
880.663	75996.5
880.904	75891.5
881.145	75795.5
881.387	75916.5
881.628	75832.5
881.869	75646.5
882.11	75606.5
882.352	74910.5
882.593	74773.5
882.834	74897.5
883.075	74602.5
883.316	74309.5
883.557	73755.5
883.797	73543.5
884.038	73044.5
884.279	72365.5
884.52	71510.5
884.761	71016.5
885.001	70418.5
885.242	69882.5
885.482	69712.5
885.723	69022.5
885.963	68706.5
886.204	68515.5
886.444	68208.5
886.685	67879.5
886.925	67694.5
887.165	67497.5
887.405	67168.5
887.646	66953.5
887.886	66558.5
888.126	66445.5
888.366	66585.5
888.606	66570.5
888.846	66732.5
889.086	66866.5
889.326	66862.5
889.565	66878.5
889.805	66958.5
890.045	66675.5
890.285	66414.5
890.524	66164.5
890.764	65944.5
891.003	65169.5
891.243	64681.5
891.482	64124.5
891.722	63677.5
891.961	62969.5
892.201	62853.5
892.44	62465.5
892.679	62007.5
892.918	61825.5
893.158	61583.5
893.397	61429.5
893.636	61083.5
893.875	61064.5
894.114	60718.5
894.353	60531.5
894.592	60381.5
894.831	60016.5
895.069	59507.5
895.308	59376.5
895.547	58817.5
895.786	58690.5
896.024	58588.5
896.263	58476.5
896.501	58129.5
896.74	58179.5
896.978	58101.5
897.217	57945.5
897.455	57765.5
897.694	57526.5
897.932	57313.5
898.17	57111.5
898.408	57077.5
898.646	56751.5
898.885	56296.5
899.123	56216.5
899.361	55819.5
899.599	55631.5
899.837	55089.5
900.075	54806.5
900.312	54316.5
900.55	53805.5
900.788	53405.5
901.026	52825.5
901.263	52469.5
901.501	52031.5
901.739	51789.5
901.976	51573.5
902.214	51291.5
902.451	51012.5
902.689	51081.5
902.926	50802.5
903.163	51044.5
903.401	50977.5
903.638	50965.5
903.875	50860.5
904.112	50814.5
904.349	50656.5
904.586	50506.5
904.823	50358.5
905.06	49798.5
905.297	49651.5
905.534	49128.5
905.771	48797.5
906.008	48428.5
906.245	48291.5
906.481	48003.5
906.718	47703.5
906.955	47625.5
907.191	47362.5
907.428	47186.5
907.664	46910.5
907.901	46813.5
908.137	46759.5
908.374	46621.5
908.61	46154.5
908.846	46077.5
909.083	45642.5
909.319	45469.5
909.555	45202.5
909.791	44748.5
910.027	44535.5
910.263	44207.5
910.499	43802.5
910.735	43436.5
910.971	43025.5
911.207	42931.5
911.443	42583.5
911.678	42406.5
911.914	42277.5
912.15	42098.5
912.385	41970.5
912.621	41949.5
912.857	41935.5
913.092	41860.5
913.328	41742.5
913.563	41694.5
913.798	41623.5
914.034	41618.5
914.269	41578.5
914.504	41406.5
914.739	41299.5
914.975	40965.5
915.21	40748.5
915.445	40237.5
915.68	39969.5
915.915	39620.5
916.15	39220.5
916.384	38622.5
916.619	38306.5
916.854	38096.5
917.089	37878.5
917.324	37645.5
917.558	37405.5
917.793	37078.5
918.028	36874.5
918.262	36870.5
918.497	36855.5
918.731	36748.5
918.965	36731.5
919.2	36496.5
919.434	36512.5
919.668	36517.5
919.903	36290.5
920.137	36219.5
920.371	36054.5
920.605	35748.5
920.839	35543.5
921.073	35128.5
921.307	35105.5
921.541	34596.5
921.775	34476.5
922.009	34202.5
922.243	34280.5
922.476	34282.5
922.71	34263.5
922.944	34147.5
923.177	34113.5
923.411	34012.5
923.644	33918.5
923.878	33803.5
924.111	33693.5
924.345	33608.5
924.578	33275.5
924.811	33201.5
925.045	33118.5
925.278	32809.5
925.511	32541.5
925.744	32269.5
925.977	32077.5
926.21	31732.5
926.443	31527.5
926.676	31252.5
926.909	31128.5
927.142	30864.5
927.375	30629.5
927.608	30463.5
927.841	30377.5
928.073	30153.5
928.306	30186.5
928.539	29993.5
928.771	29955.5
929.004	29874.5
929.236	30037.5
929.469	29920.5
929.701	29935.5
929.933	30053.5
930.166	29968.5
930.398	29921.5
930.63	29901.5
930.862	29947.5
931.094	29557.5
931.327	29434.5
931.559	29186.5
931.791	28944.5
932.023	28668.5
932.255	28631.5
932.486	28326.5
932.718	28184.5
932.95	27943.5
933.182	27879.5
933.413	27673.5
933.645	27573.5
933.877	27511.5
934.108	27365.5
934.34	27165.5
934.571	27110.5
934.803	27025.5
935.034	26878.5
935.265	26882.5
935.497	26685.5
935.728	26713.5
935.959	26496.5
936.19	26349.5
936.422	26228.5
936.653	25948.5
936.884	25924.5
937.115	25819.5
937.346	25653.5
937.577	25451.5
937.807	25186.5
938.038	25145.5
938.269	25206.5
938.5	25081.5
938.73	25017.5
938.961	24807.5
939.192	24943.5
939.422	24859.5
939.653	24800.5
939.883	24787.5
940.114	24831.5
940.344	24660.5
940.574	24497.5
940.805	24369.5
941.035	24249.5
941.265	24116.5
941.495	23861.5
941.726	23808.5
941.956	23590.5
942.186	23391.5
942.416	23261.5
942.646	23087.5
942.876	22990.5
943.105	22698.5
943.335	22513.5
943.565	22318.5
943.795	22118.5
944.024	21963.5
944.254	21725.5
944.484	21752.5
944.713	21598.5
944.943	21479.5
945.172	21425.5
945.402	21376.5
945.631	21349.5
945.86	21273.5
946.09	21301.5
946.319	21296.5
946.548	21240.5
946.777	21173.5
947.006	21155.5
947.235	21044.5
947.465	20934.5
947.694	20792.5
947.922	20599.5
948.151	20603.5
948.38	20393.5
948.609	20108.5
948.838	20020.5
949.067	19907.5
949.295	19842.5
949.524	19760.5
949.752	19547.5
949.981	19405.5
950.21	19303.5
950.438	19161.5
950.666	18947.5
950.895	18976.5
951.123	18733.5
951.351	18719.5
951.58	18588.5
951.808	18484.5
952.036	18411.5
952.264	18350.5
952.492	18256.5
952.72	18230.5
952.948	18033.5
953.176	17951.5
953.404	17809.5
953.632	17695.5
953.86	17552.5
954.088	17420.5
954.315	17287.5
954.543	17162.5
954.771	17090.5
954.998	16980.5
955.226	16890.5
955.453	16771.5
955.681	16716.5
955.908	16785.5
956.135	16644.5
956.363	16484.5
956.59	16659.5
956.817	16590.5
957.045	16443.5
957.272	16435.5
957.499	16352.5
957.726	16318.5
957.953	16106.5
958.18	16113.5
958.407	15972.5
958.634	15963.5
958.861	15857.5
959.087	15752.5
959.314	15561.5
959.541	15502.5
959.767	15395.5
959.994	15310.5
960.221	15263.5
960.447	14978.5
960.674	14943.5
960.9	14808.5
961.127	14728.5
961.353	14519.5
961.579	14600.5
961.806	14425.5
962.032	14292.5
962.258	14270.5
962.484	14103.5
962.71	14167.5
962.936	14106.5
963.162	14046.5
963.388	14029.5
963.614	14030.5
963.84	13974.5
964.066	14012.5
964.292	13822.5
964.518	13771.5
964.743	13777.5
964.969	13695.5
965.195	13607.5
965.42	13596.5
965.646	13598.5
965.871	13451.5
966.097	13328.5
966.322	13336.5
966.547	13219.5
966.773	13109.5
966.998	13029.5
967.223	12950.5
967.448	12941.5
967.674	12858.5
967.899	12740.5
968.124	12670.5
968.349	12652.5
968.574	12523.5
968.799	12511.5
969.024	12380.5
969.248	12473.5
969.473	12190.5
969.698	12230.5
969.923	12170.5
970.147	12101.5
970.372	11968.5
970.596	11875.5
970.821	11777.5
971.046	11838.5
971.27	11728.5
971.494	11678.5
971.719	11558.5
971.943	11545.5
972.167	11330.5
972.392	11362.5
972.616	11185.5
972.84	11135.5
973.064	11125.5
973.288	11083.5
973.512	11037.5
973.736	11028.5
973.96	10910.5
974.184	10885.5
974.408	10846.5
974.631	10812.5
974.855	10765.5
975.079	10741.5
975.303	10729.5
975.526	10655.5
975.75	10562.5
975.973	10570.5
976.197	10451.5
976.42	10488.5
976.644	10397.5
976.867	10338.5
977.09	10265.5
977.313	10201.5
977.537	10126.5
977.76	10056.5
977.983	9939.5
978.206	9859.5
978.429	9859.5
978.652	9780.5
978.875	9737.5
979.098	9631.5
979.321	9592.5
979.544	9474.5
979.767	9465.5
979.989	9345.5
980.212	9355.5
980.435	9226.5
980.657	9185.5
980.88	9146.5
981.102	9164.5
981.325	9086.5
981.547	9032.5
981.77	8972.5
981.992	8922.5
982.214	8880.5
982.437	8804.5
982.659	8754.5
982.881	8754.5
983.103	8717.5
983.325	8645.5
983.547	8647.5
983.769	8569.5
983.991	8614.5
984.213	8501.5
984.435	8535.5
984.657	8402.5
984.879	8423.5
985.1	8374.5
985.322	8287.5
985.544	8254.5
985.765	8173.5
985.987	8127.5
986.208	8136.5
986.43	8072.5
986.651	8077.5
986.873	7966.5
987.094	7965.5
987.315	7887.5
987.536	7833.5
987.758	7781.5
987.979	7611.5
988.2	7690.5
988.421	7610.5
988.642	7560.5
988.863	7456.5
989.084	7479.5
989.305	7378.5
989.526	7417.5
989.747	7334.5
989.967	7259.5
990.188	7215.5
990.409	7163.5
990.629	7118.5
990.85	7065.5
991.071	7000.5
991.291	7009.5
991.512	6909.5
991.732	6914.5
991.952	6844.5
992.173	6843.5
992.393	6772.5
992.613	6781.5
992.834	6791.5
993.054	6729.5
993.274	6661.5
993.494	6643.5
993.714	6640.5
993.934	6599.5
994.154	6573.5
994.374	6569.5
994.594	6524.5
994.813	6475.5
995.033	6502.5
995.253	6435.5
995.473	6436.5
995.692	6362.5
995.912	6321.5
996.131	6282.5
996.351	6277.5
996.57	6153.5
996.79	6157.5
997.009	6014.5
997.228	6024.5
997.448	5960.5
997.667	5836.5
997.886	5817.5
998.105	5784.5
998.325	5699.5
998.544	5707.5
998.763	5651.5
998.982	5679.5
999.201	5594.5
999.419	5525.5
999.638	5481.5
999.857	5533.5
1000.076	5485.5
1000.295	5445.5
1000.513	5443.5
1000.732	5388.5
1000.95	5366.5
1001.169	5380.5
1001.388	5265.5
1001.606	5275.5
1001.824	5298.5
1002.043	5214.5
1002.261	5238.5
1002.479	5184.5
1002.698	5169.5
1002.916	5092.5
1003.134	5101.5
1003.352	5111.5
1003.57	5049.5
1003.788	5025.5
1004.006	4982.5
1004.224	4980.5
1004.442	4927.5
1004.66	4929.5
1004.878	4888.5
1005.095	4897.5
1005.313	4925.5
1005.531	4820.5
1005.748	4812.5
1005.966	4856.5
1006.184	4733.5
1006.401	4815.5
1006.618	4719.5
1006.836	4614.5
1007.053	4655.5
1007.271	4611.5
1007.488	4533.5
1007.705	4592.5
1007.922	4583.5
1008.139	4513.5
1008.357	4551.5
1008.574	4563.5
1008.791	4537.5
1009.008	4568.5
1009.225	4563.5
1009.441	4564.5
1009.658	4581.5
1009.875	4549.5
1010.092	4491.5
1010.309	4511.5
1010.525	4461.5
1010.742	4373.5
1010.958	4296.5
1011.175	4343.5
1011.391	4280.5
1011.608	4196.5
1011.824	4231.5
1012.041	4161.5
1012.257	4133.5
1012.473	4048.5
1012.689	4041.5
1012.906	4041.5
1013.122	3988.5
1013.338	3984.5
1013.554	3988.5
1013.77	3992.5
1013.986	4032.5
1014.202	4036.5
1014.418	4059.5
1014.634	4092.5
1014.849	4110.5
1015.065	4088.5
1015.281	4160.5
1015.496	4100.5
1015.712	4094.5
1015.928	4037.5
1016.143	3954.5
1016.359	3890.5
1016.574	3843.5
1016.79	3793.5
1017.005	3739.5
1017.22	3631.5
1017.435	3607.5
1017.651	3542.5
1017.866	3508.5
1018.081	3421.5
1018.296	3414.5
1018.511	3359.5
1018.726	3309.5
1018.941	3300.5
1019.156	3256.5
1019.371	3224.5
1019.586	3206.5
1019.801	3204.5
1020.015	3118.5
1020.23	3143.5
1020.445	3117.5
1020.659	3038.5
1020.874	3035.5
1021.088	2984.5
1021.303	3001.5
1021.517	2915.5
1021.732	2914.5
1021.946	2901.5
1022.16	2861.5
1022.375	2840.5
1022.589	2791.5
1022.803	2768.5
1023.017	2705.5
1023.231	2642.5
1023.445	2612.5
1023.659	2521.5
1023.873	2496.5
1024.087	2473.5
1024.301	2408.5
1024.515	2364.5
1024.729	2346.5
1024.942	2289.5
1025.156	2286.5
1025.37	2228.5
1025.583	2190.5
1025.797	2171.5
1026.01	2120.5
1026.224	2054.5
1026.437	1981.5
1026.651	1923.5
1026.864	1878.5
1027.077	1850.5
1027.291	1813.5
1027.504	1741.5
1027.717	1689.5
1027.93	1691.5
1028.143	1596.5
1028.356	1548.5
1028.569	1472.5
1028.782	1419.5
1028.995	-1.5
1029.208	-0.5
1029.421	-1.5
1029.634	-0.5
