Data from QEP037381__35__14-48-52-773.txt Node

Date: Mon Mar 14 14:48:52 EDT 2022
User: dcclab
Spectrometer: QEP03738
Trigger mode: 4
Integration Time (sec): 2.500000E0
Scans to average: 1
Electric dark correction enabled: true
Nonlinearity correction enabled: false
Boxcar width: 0
XAxis mode: Wavelengths
Number of Pixels in Spectrum: 1044
>>>>>Begin Spectral Data<<<<<
783.959	11.5
784.218	1.5
784.476	-3.5
784.734	-5.5
784.992	337.5
785.251	334.5
785.509	325.5
785.767	304.5
786.025	320.5
786.283	303.5
786.541	317.5
786.798	318.5
787.056	307.5
787.314	301.5
787.572	315.5
787.83	307.5
788.087	305.5
788.345	304.5
788.602	301.5
788.86	298.5
789.117	308.5
789.375	294.5
789.632	311.5
789.89	312.5
790.147	319.5
790.404	328.5
790.661	341.5
790.919	343.5
791.176	336.5
791.433	339.5
791.69	349.5
791.947	357.5
792.204	345.5
792.461	372.5
792.718	384.5
792.974	376.5
793.231	397.5
793.488	429.5
793.745	417.5
794.001	440.5
794.258	471.5
794.514	461.5
794.771	499.5
795.027	524.5
795.284	548.5
795.54	589.5
795.797	600.5
796.053	683.5
796.309	743.5
796.565	793.5
796.822	888.5
797.078	998.5
797.334	1167.5
797.59	1360.5
797.846	1717.5
798.102	2251.5
798.358	2996.5
798.614	4342.5
798.869	6336.5
799.125	9388.5
799.381	13732.5
799.637	19446.5
799.892	26406.5
800.148	33914.5
800.403	41516.5
800.659	47925.5
800.914	53041.5
801.17	56541.5
801.425	58602.5
801.68	60367.5
801.936	61585.5
802.191	62928.5
802.446	64253.5
802.701	65764.5
802.957	66707.5
803.212	68340.5
803.467	69594.5
803.722	70829.5
803.977	72188.5
804.232	73436.5
804.486	74799.5
804.741	76059.5
804.996	77428.5
805.251	78885.5
805.505	80236.5
805.76	81287.5
806.015	82348.5
806.269	83413.5
806.524	84463.5
806.778	85035.5
807.033	85667.5
807.287	86659.5
807.541	87741.5
807.796	88906.5
808.05	89977.5
808.304	90583.5
808.558	91320.5
808.812	91777.5
809.066	92458.5
809.32	93061.5
809.574	93576.5
809.828	94226.5
810.082	94761.5
810.336	95406.5
810.59	96367.5
810.844	97499.5
811.097	98678.5
811.351	99917.5
811.605	101449.5
811.858	103067.5
812.112	104493.5
812.365	106161.5
812.619	107819.5
812.872	109308.5
813.126	110575.5
813.379	111978.5
813.632	113496.5
813.885	114694.5
814.139	116444.5
814.392	117899.5
814.645	119908.5
814.898	121966.5
815.151	124219.5
815.404	126188.5
815.657	128287.5
815.91	130165.5
816.163	131737.5
816.416	132808.5
816.668	134054.5
816.921	134620.5
817.174	134835.5
817.426	134852.5
817.679	134628.5
817.931	134823.5
818.184	134779.5
818.436	134809.5
818.689	134693.5
818.941	135157.5
819.194	135589.5
819.446	135995.5
819.698	136185.5
819.95	136932.5
820.202	137311.5
820.455	137751.5
820.707	137979.5
820.959	138159.5
821.211	138087.5
821.462	137746.5
821.714	137479.5
821.966	136940.5
822.218	136090.5
822.47	135786.5
822.722	135015.5
822.973	134666.5
823.225	134069.5
823.476	133887.5
823.728	133813.5
823.979	133704.5
824.231	133847.5
824.482	133931.5
824.734	134010.5
824.985	133865.5
825.236	133799.5
825.487	133340.5
825.739	132586.5
825.99	132488.5
826.241	132006.5
826.492	130789.5
826.743	130672.5
826.994	129733.5
827.245	129443.5
827.496	128921.5
827.747	129004.5
827.997	128738.5
828.248	128717.5
828.499	128971.5
828.75	128866.5
829	128673.5
829.251	128661.5
829.501	128529.5
829.752	127970.5
830.002	127252.5
830.253	126644.5
830.503	125578.5
830.753	124563.5
831.004	124033.5
831.254	123363.5
831.504	123317.5
831.754	122752.5
832.004	122872.5
832.254	122660.5
832.504	122798.5
832.754	123057.5
833.004	122862.5
833.254	122504.5
833.504	122352.5
833.754	121944.5
834.003	121405.5
834.253	120826.5
834.503	120273.5
834.752	119402.5
835.002	118742.5
835.252	118021.5
835.501	117548.5
835.75	117399.5
836	117278.5
836.249	116953.5
836.499	116881.5
836.748	116848.5
836.997	116644.5
837.246	116898.5
837.495	116985.5
837.744	117855.5
837.993	117985.5
838.242	118199.5
838.491	117801.5
838.74	116713.5
838.989	115494.5
839.238	114542.5
839.487	113519.5
839.736	112979.5
839.984	112230.5
840.233	111843.5
840.482	111412.5
840.73	111126.5
840.979	110548.5
841.227	110212.5
841.476	109587.5
841.724	109701.5
841.972	108953.5
842.221	108979.5
842.469	108357.5
842.717	107758.5
842.965	107540.5
843.213	107163.5
843.461	106723.5
843.71	106264.5
843.958	105946.5
844.205	105480.5
844.453	105083.5
844.701	105077.5
844.949	105148.5
845.197	105109.5
845.445	105141.5
845.692	105112.5
845.94	105325.5
846.188	105382.5
846.435	105128.5
846.683	104661.5
846.93	104082.5
847.178	103727.5
847.425	102778.5
847.672	102328.5
847.92	101123.5
848.167	100343.5
848.414	99441.5
848.661	98542.5
848.908	98160.5
849.155	97813.5
849.402	97700.5
849.649	97767.5
849.896	98152.5
850.143	98461.5
850.39	99142.5
850.637	98898.5
850.884	98935.5
851.131	98780.5
851.377	98380.5
851.624	98002.5
851.87	97358.5
852.117	97071.5
852.364	96506.5
852.61	96264.5
852.856	95903.5
853.103	95404.5
853.349	95041.5
853.595	94742.5
853.842	93961.5
854.088	93646.5
854.334	94116.5
854.58	93937.5
854.826	93444.5
855.072	92832.5
855.318	92157.5
855.564	91242.5
855.81	90569.5
856.056	89781.5
856.302	89110.5
856.548	88341.5
856.793	87840.5
857.039	87640.5
857.285	87191.5
857.53	87052.5
857.776	87084.5
858.021	87367.5
858.267	87515.5
858.512	87611.5
858.758	87762.5
859.003	87880.5
859.248	87511.5
859.493	87712.5
859.739	87584.5
859.984	87060.5
860.229	86572.5
860.474	86299.5
860.719	85625.5
860.964	85176.5
861.209	84686.5
861.454	84075.5
861.699	83361.5
861.943	82949.5
862.188	82744.5
862.433	82446.5
862.678	82384.5
862.922	82178.5
863.167	81804.5
863.411	81628.5
863.656	81428.5
863.9	81178.5
864.145	80787.5
864.389	80315.5
864.634	80154.5
864.878	79661.5
865.122	79351.5
865.366	79301.5
865.61	78956.5
865.855	79014.5
866.099	78562.5
866.343	78394.5
866.587	78248.5
866.831	77982.5
867.074	78190.5
867.318	78193.5
867.562	77971.5
867.806	78046.5
868.05	77930.5
868.293	77662.5
868.537	77287.5
868.78	77165.5
869.024	76725.5
869.267	76226.5
869.511	75674.5
869.754	75039.5
869.998	74301.5
870.241	73643.5
870.484	73120.5
870.728	72609.5
870.971	72328.5
871.214	71843.5
871.457	71646.5
871.7	71550.5
871.943	71841.5
872.186	71618.5
872.429	71647.5
872.672	71955.5
872.915	71706.5
873.158	71553.5
873.4	71330.5
873.643	71031.5
873.886	70989.5
874.128	70766.5
874.371	70476.5
874.613	70308.5
874.856	70044.5
875.098	70042.5
875.341	69597.5
875.583	69493.5
875.825	69217.5
876.068	68828.5
876.31	68582.5
876.552	67812.5
876.794	67458.5
877.036	66558.5
877.278	66327.5
877.52	65989.5
877.762	65756.5
878.004	65618.5
878.246	65273.5
878.488	65244.5
878.73	65135.5
878.972	64924.5
879.213	64871.5
879.455	64759.5
879.697	64341.5
879.938	64432.5
880.18	64147.5
880.421	63939.5
880.663	63810.5
880.904	63834.5
881.145	64044.5
881.387	63989.5
881.628	63803.5
881.869	63513.5
882.11	63290.5
882.352	63051.5
882.593	62836.5
882.834	62775.5
883.075	62543.5
883.316	62435.5
883.557	62033.5
883.797	61602.5
884.038	61130.5
884.279	60452.5
884.52	59684.5
884.761	59251.5
885.001	58743.5
885.242	58179.5
885.482	57896.5
885.723	57635.5
885.963	57225.5
886.204	57201.5
886.444	56954.5
886.685	56804.5
886.925	56445.5
887.165	56190.5
887.405	56135.5
887.646	55843.5
887.886	55596.5
888.126	55717.5
888.366	55529.5
888.606	55573.5
888.846	55580.5
889.086	55762.5
889.326	55699.5
889.565	55794.5
889.805	55613.5
890.045	55483.5
890.285	55278.5
890.524	54978.5
890.764	54792.5
891.003	54445.5
891.243	53810.5
891.482	53473.5
891.722	52949.5
891.961	52493.5
892.201	52253.5
892.44	51880.5
892.679	51503.5
892.918	51455.5
893.158	51273.5
893.397	51398.5
893.636	51159.5
893.875	51002.5
894.114	50677.5
894.353	50571.5
894.592	50274.5
894.831	49945.5
895.069	49751.5
895.308	49470.5
895.547	48989.5
895.786	48769.5
896.024	48778.5
896.263	48369.5
896.501	48487.5
896.74	48205.5
896.978	48438.5
897.217	48355.5
897.455	48046.5
897.694	47975.5
897.932	47593.5
898.17	47622.5
898.408	47273.5
898.646	47319.5
898.885	47005.5
899.123	46675.5
899.361	46440.5
899.599	46163.5
899.837	45952.5
900.075	45499.5
900.312	45310.5
900.55	44752.5
900.788	44368.5
901.026	44054.5
901.263	43659.5
901.501	43320.5
901.739	43083.5
901.976	42878.5
902.214	42659.5
902.451	42546.5
902.689	42333.5
902.926	42242.5
903.163	42199.5
903.401	42343.5
903.638	42201.5
903.875	42192.5
904.112	42153.5
904.349	42139.5
904.586	42022.5
904.823	41723.5
905.06	41442.5
905.297	41281.5
905.534	40899.5
905.771	40691.5
906.008	40320.5
906.245	40157.5
906.481	39895.5
906.718	39671.5
906.955	39411.5
907.191	39180.5
907.428	39023.5
907.664	38908.5
907.901	38868.5
908.137	38717.5
908.374	38423.5
908.61	38278.5
908.846	38101.5
909.083	37862.5
909.319	37571.5
909.555	37397.5
909.791	37192.5
910.027	36785.5
910.263	36547.5
910.499	36181.5
910.735	36020.5
910.971	35574.5
911.207	35562.5
911.443	35245.5
911.678	35015.5
911.914	34905.5
912.15	34910.5
912.385	34708.5
912.621	34768.5
912.857	34785.5
913.092	34703.5
913.328	34575.5
913.563	34427.5
913.798	34470.5
914.034	34439.5
914.269	34365.5
914.504	34262.5
914.739	34136.5
914.975	33844.5
915.21	33721.5
915.445	33426.5
915.68	32918.5
915.915	32709.5
916.15	32366.5
916.384	32147.5
916.619	31900.5
916.854	31588.5
917.089	31446.5
917.324	31272.5
917.558	30689.5
917.793	30764.5
918.028	30497.5
918.262	30529.5
918.497	30456.5
918.731	30432.5
918.965	30385.5
919.2	30324.5
919.434	30268.5
919.668	30137.5
919.903	30147.5
920.137	30001.5
920.371	29771.5
920.605	29566.5
920.839	29500.5
921.073	29134.5
921.307	28987.5
921.541	28737.5
921.775	28520.5
922.009	28450.5
922.243	28340.5
922.476	28294.5
922.71	28235.5
922.944	28327.5
923.177	28109.5
923.411	27955.5
923.644	28025.5
923.878	27967.5
924.111	27795.5
924.345	27694.5
924.578	27567.5
924.811	27447.5
925.045	27300.5
925.278	27105.5
925.511	26898.5
925.744	26609.5
925.977	26490.5
926.21	26283.5
926.443	26019.5
926.676	25855.5
926.909	25692.5
927.142	25593.5
927.375	25402.5
927.608	25094.5
927.841	24966.5
928.073	24965.5
928.306	24864.5
928.539	24799.5
928.771	24895.5
929.004	24849.5
929.236	24784.5
929.469	24810.5
929.701	24812.5
929.933	24836.5
930.166	24778.5
930.398	24792.5
930.63	24709.5
930.862	24621.5
931.094	24289.5
931.327	24292.5
931.559	24243.5
931.791	23948.5
932.023	23833.5
932.255	23640.5
932.486	23493.5
932.718	23159.5
932.95	23038.5
933.182	22984.5
933.413	22899.5
933.645	22821.5
933.877	22746.5
934.108	22620.5
934.34	22512.5
934.571	22482.5
934.803	22316.5
935.034	22237.5
935.265	22162.5
935.497	22136.5
935.728	21981.5
935.959	21927.5
936.19	21957.5
936.422	21647.5
936.653	21764.5
936.884	21508.5
937.115	21340.5
937.346	21291.5
937.577	21114.5
937.807	20959.5
938.038	20804.5
938.269	20837.5
938.5	20766.5
938.73	20702.5
938.961	20699.5
939.192	20791.5
939.422	20716.5
939.653	20690.5
939.883	20602.5
940.114	20571.5
940.344	20559.5
940.574	20443.5
940.805	20231.5
941.035	20211.5
941.265	20002.5
941.495	19866.5
941.726	19760.5
941.956	19624.5
942.186	19512.5
942.416	19363.5
942.646	19245.5
942.876	18955.5
943.105	18761.5
943.335	18732.5
943.565	18631.5
943.795	18486.5
944.024	18372.5
944.254	18224.5
944.484	18093.5
944.713	17999.5
944.943	18031.5
945.172	17896.5
945.402	17841.5
945.631	17830.5
945.86	17802.5
946.09	17736.5
946.319	17720.5
946.548	17676.5
946.777	17764.5
947.006	17619.5
947.235	17652.5
947.465	17548.5
947.694	17445.5
947.922	17264.5
948.151	17080.5
948.38	16947.5
948.609	16861.5
948.838	16830.5
949.067	16724.5
949.295	16632.5
949.524	16419.5
949.752	16354.5
949.981	16301.5
950.21	16213.5
950.438	16079.5
950.666	16036.5
950.895	15923.5
951.123	15868.5
951.351	15656.5
951.58	15573.5
951.808	15642.5
952.036	15481.5
952.264	15448.5
952.492	15346.5
952.72	15200.5
952.948	15104.5
953.176	15024.5
953.404	14994.5
953.632	14784.5
953.86	14730.5
954.088	14577.5
954.315	14527.5
954.543	14491.5
954.771	14297.5
954.998	14263.5
955.226	14223.5
955.453	14220.5
955.681	14088.5
955.908	14099.5
956.135	14116.5
956.363	14044.5
956.59	14031.5
956.817	14007.5
957.045	13905.5
957.272	13920.5
957.499	13866.5
957.726	13778.5
957.953	13702.5
958.18	13611.5
958.407	13588.5
958.634	13517.5
958.861	13431.5
959.087	13367.5
959.314	13181.5
959.541	13233.5
959.767	13003.5
959.994	12924.5
960.221	12858.5
960.447	12766.5
960.674	12656.5
960.9	12585.5
961.127	12451.5
961.353	12368.5
961.579	12323.5
961.806	12250.5
962.032	12149.5
962.258	12026.5
962.484	12118.5
962.71	11983.5
962.936	11968.5
963.162	11875.5
963.388	11861.5
963.614	11863.5
963.84	11853.5
964.066	11809.5
964.292	11737.5
964.518	11706.5
964.743	11586.5
964.969	11538.5
965.195	11529.5
965.42	11516.5
965.646	11430.5
965.871	11359.5
966.097	11287.5
966.322	11134.5
966.547	11199.5
966.773	11160.5
966.998	11073.5
967.223	11057.5
967.448	10928.5
967.674	10920.5
967.899	10819.5
968.124	10717.5
968.349	10639.5
968.574	10668.5
968.799	10620.5
969.024	10491.5
969.248	10410.5
969.473	10404.5
969.698	10317.5
969.923	10282.5
970.147	10158.5
970.372	10102.5
970.596	10043.5
970.821	10080.5
971.046	9888.5
971.27	9896.5
971.494	9828.5
971.719	9785.5
971.943	9631.5
972.167	9602.5
972.392	9594.5
972.616	9528.5
972.84	9515.5
973.064	9395.5
973.288	9382.5
973.512	9352.5
973.736	9274.5
973.96	9246.5
974.184	9327.5
974.408	9168.5
974.631	9190.5
974.855	9115.5
975.079	9143.5
975.303	9035.5
975.526	9035.5
975.75	9002.5
975.973	8919.5
976.197	8930.5
976.42	8836.5
976.644	8827.5
976.867	8728.5
977.09	8622.5
977.313	8637.5
977.537	8539.5
977.76	8477.5
977.983	8484.5
978.206	8448.5
978.429	8331.5
978.652	8258.5
978.875	8187.5
979.098	8194.5
979.321	8119.5
979.544	8036.5
979.767	8018.5
979.989	8005.5
980.212	7932.5
980.435	7853.5
980.657	7858.5
980.88	7822.5
981.102	7669.5
981.325	7753.5
981.547	7627.5
981.77	7595.5
981.992	7628.5
982.214	7500.5
982.437	7495.5
982.659	7437.5
982.881	7494.5
983.103	7440.5
983.325	7419.5
983.547	7369.5
983.769	7294.5
983.991	7260.5
984.213	7197.5
984.435	7215.5
984.657	7126.5
984.879	7139.5
985.1	7085.5
985.322	7065.5
985.544	7033.5
985.765	6923.5
985.987	6937.5
986.208	6879.5
986.43	6913.5
986.651	6845.5
986.873	6745.5
987.094	6723.5
987.315	6690.5
987.536	6649.5
987.758	6589.5
987.979	6510.5
988.2	6561.5
988.421	6453.5
988.642	6453.5
988.863	6402.5
989.084	6341.5
989.305	6334.5
989.526	6268.5
989.747	6172.5
989.967	6112.5
990.188	6111.5
990.409	6046.5
990.629	6046.5
990.85	5997.5
991.071	5921.5
991.291	5909.5
991.512	5870.5
991.732	5826.5
991.952	5872.5
992.173	5811.5
992.393	5771.5
992.613	5740.5
992.834	5717.5
993.054	5756.5
993.274	5700.5
993.494	5687.5
993.714	5715.5
993.934	5670.5
994.154	5643.5
994.374	5596.5
994.594	5539.5
994.813	5522.5
995.033	5512.5
995.253	5483.5
995.473	5479.5
995.692	5416.5
995.912	5423.5
996.131	5334.5
996.351	5310.5
996.57	5255.5
996.79	5174.5
997.009	5198.5
997.228	5155.5
997.448	5072.5
997.667	5050.5
997.886	4962.5
998.105	4884.5
998.325	4919.5
998.544	4855.5
998.763	4817.5
998.982	4779.5
999.201	4731.5
999.419	4696.5
999.638	4699.5
999.857	4654.5
1000.076	4657.5
1000.295	4648.5
1000.513	4618.5
1000.732	4596.5
1000.95	4537.5
1001.169	4548.5
1001.388	4526.5
1001.606	4490.5
1001.824	4464.5
1002.043	4439.5
1002.261	4460.5
1002.479	4463.5
1002.698	4386.5
1002.916	4332.5
1003.134	4407.5
1003.352	4301.5
1003.57	4280.5
1003.788	4277.5
1004.006	4254.5
1004.224	4245.5
1004.442	4211.5
1004.66	4209.5
1004.878	4184.5
1005.095	4139.5
1005.313	4135.5
1005.531	4134.5
1005.748	4101.5
1005.966	4200.5
1006.184	4070.5
1006.401	4040.5
1006.618	4035.5
1006.836	4011.5
1007.053	4005.5
1007.271	4015.5
1007.488	3943.5
1007.705	3963.5
1007.922	3976.5
1008.139	3923.5
1008.357	3934.5
1008.574	3923.5
1008.791	3945.5
1009.008	4026.5
1009.225	3969.5
1009.441	4043.5
1009.658	4038.5
1009.875	4034.5
1010.092	3978.5
1010.309	3956.5
1010.525	3936.5
1010.742	3856.5
1010.958	3801.5
1011.175	3846.5
1011.391	3766.5
1011.608	3718.5
1011.824	3696.5
1012.041	3662.5
1012.257	3673.5
1012.473	3654.5
1012.689	3594.5
1012.906	3540.5
1013.122	3526.5
1013.338	3576.5
1013.554	3544.5
1013.77	3546.5
1013.986	3535.5
1014.202	3566.5
1014.418	3612.5
1014.634	3712.5
1014.849	3698.5
1015.065	3756.5
1015.281	3753.5
1015.496	3754.5
1015.712	3685.5
1015.928	3607.5
1016.143	3573.5
1016.359	3544.5
1016.574	3444.5
1016.79	3377.5
1017.005	3339.5
1017.22	3278.5
1017.435	3203.5
1017.651	3145.5
1017.866	3127.5
1018.081	3014.5
1018.296	2987.5
1018.511	2955.5
1018.726	2950.5
1018.941	2902.5
1019.156	2878.5
1019.371	2899.5
1019.586	2900.5
1019.801	2801.5
1020.015	2830.5
1020.23	2795.5
1020.445	2741.5
1020.659	2742.5
1020.874	2702.5
1021.088	2648.5
1021.303	2611.5
1021.517	2595.5
1021.732	2536.5
1021.946	2573.5
1022.16	2488.5
1022.375	2451.5
1022.589	2427.5
1022.803	2397.5
1023.017	2321.5
1023.231	2303.5
1023.445	2266.5
1023.659	2223.5
1023.873	2195.5
1024.087	2139.5
1024.301	2094.5
1024.515	2030.5
1024.729	2056.5
1024.942	1957.5
1025.156	1972.5
1025.37	1900.5
1025.583	1879.5
1025.797	1844.5
1026.01	1841.5
1026.224	1763.5
1026.437	1731.5
1026.651	1658.5
1026.864	1643.5
1027.077	1603.5
1027.291	1570.5
1027.504	1510.5
1027.717	1476.5
1027.93	1435.5
1028.143	1395.5
1028.356	1349.5
1028.569	1289.5
1028.782	1197.5
1028.995	-1.5
1029.208	-0.5
1029.421	-1.5
1029.634	-0.5
