Data from QEP037381__51__14-50-35-275.txt Node

Date: Mon Mar 14 14:50:35 EDT 2022
User: dcclab
Spectrometer: QEP03738
Trigger mode: 4
Integration Time (sec): 2.500000E0
Scans to average: 1
Electric dark correction enabled: true
Nonlinearity correction enabled: false
Boxcar width: 0
XAxis mode: Wavelengths
Number of Pixels in Spectrum: 1044
>>>>>Begin Spectral Data<<<<<
783.959	13
784.218	-1
784.476	-2
784.734	-1
784.992	330
785.251	327
785.509	309
785.767	321
786.025	314
786.283	312
786.541	305
786.798	315
787.056	318
787.314	305
787.572	305
787.83	300
788.087	316
788.345	300
788.602	303
788.86	312
789.117	301
789.375	308
789.632	317
789.89	320
790.147	325
790.404	332
790.661	316
790.919	357
791.176	340
791.433	337
791.69	366
791.947	358
792.204	349
792.461	379
792.718	377
792.974	402
793.231	415
793.488	445
793.745	444
794.001	459
794.258	480
794.514	469
794.771	521
795.027	531
795.284	555
795.54	593
795.797	641
796.053	700
796.309	741
796.565	829
796.822	915
797.078	1043
797.334	1192
797.59	1453
797.846	1796
798.102	2331
798.358	3160
798.614	4542
798.869	6632
799.125	9766
799.381	14288
799.637	20303
799.892	27614
800.148	35471
800.403	43040
800.659	49593
800.914	54879
801.17	58360
801.425	60641
801.68	62147
801.936	63656
802.191	65063
802.446	66477
802.701	67832
802.957	69229
803.212	70501
803.467	71927
803.722	73182
803.977	74421
804.232	75804
804.486	77435
804.741	78736
804.996	79962
805.251	81352
805.505	82753
805.76	84169
806.015	84876
806.269	85980
806.524	87118
806.778	87701
807.033	88447
807.287	89633
807.541	90599
807.796	91972
808.05	93003
808.304	93840
808.558	94029
808.812	94693
809.066	95433
809.32	95968
809.574	96645
809.828	97036
810.082	97820
810.336	98605
810.59	99359
810.844	100358
811.097	101744
811.351	103298
811.605	104956
811.858	106620
812.112	108016
812.365	109416
812.619	111201
812.872	112702
813.126	114178
813.379	115500
813.632	117355
813.885	118621
814.139	120294
814.392	121767
814.645	123712
814.898	126029
815.151	127874
815.404	130223
815.657	132487
815.91	134421
816.163	136061
816.416	137264
816.668	138244
816.921	138914
817.174	139296
817.426	139383
817.679	139081
817.931	139101
818.184	139010
818.436	139420
818.689	139172
818.941	139459
819.194	140009
819.446	140280
819.698	140764
819.95	141120
820.202	141773
820.455	142118
820.707	142421
820.959	142610
821.211	142399
821.462	142420
821.714	141861
821.966	141290
822.218	140806
822.47	140392
822.722	139532
822.973	138734
823.225	138499
823.476	138335
823.728	138054
823.979	138155
824.231	138385
824.482	137904
824.734	137990
824.985	138084
825.236	138064
825.487	137945
825.739	137065
825.99	136342
826.241	136022
826.492	135242
826.743	134733
826.994	134154
827.245	133453
827.496	133370
827.747	133160
827.997	132788
828.248	132771
828.499	133104
828.75	133168
829	132974
829.251	132584
829.501	132575
829.752	132031
830.002	131203
830.253	130353
830.503	129688
830.753	128651
831.004	127941
831.254	127861
831.504	126973
831.754	126672
832.004	126619
832.254	126773
832.504	126738
832.754	126650
833.004	126775
833.254	126323
833.504	126167
833.754	125823
834.003	125417
834.253	125057
834.503	123983
834.752	123127
835.002	122656
835.252	122003
835.501	121229
835.75	120880
836	120806
836.249	120623
836.499	120601
836.748	120459
836.997	120444
837.246	120628
837.495	120636
837.744	121341
837.993	121805
838.242	121871
838.491	121593
838.74	120348
838.989	118964
839.238	118052
839.487	117255
839.736	116687
839.984	115752
840.233	115345
840.482	114660
840.73	114306
840.979	113844
841.227	113523
841.476	113157
841.724	112684
841.972	112502
842.221	112135
842.469	111678
842.717	111092
842.965	110720
843.213	110452
843.461	110419
843.71	109629
843.958	108910
844.205	108900
844.453	108494
844.701	108390
844.949	108184
845.197	108366
845.445	108355
845.692	108269
845.94	108357
846.188	108449
846.435	108411
846.683	107894
846.93	107428
847.178	106762
847.425	106103
847.672	105185
847.92	104478
848.167	103437
848.414	102484
848.661	101715
848.908	101082
849.155	101054
849.402	100639
849.649	100900
849.896	101126
850.143	101669
850.39	102014
850.637	101892
850.884	101944
851.131	101615
851.377	101350
851.624	100965
851.87	100279
852.117	99561
852.364	99228
852.61	98942
852.856	98847
853.103	98175
853.349	97891
853.595	97476
853.842	96825
854.088	96453
854.334	96700
854.58	96684
854.826	95944
855.072	95494
855.318	94786
855.564	93954
855.81	93130
856.056	92244
856.302	91472
856.548	90886
856.793	90333
857.039	89936
857.285	89708
857.53	89501
857.776	89820
858.021	89785
858.267	90132
858.512	90385
858.758	90195
859.003	90348
859.248	90173
859.493	90093
859.739	89858
859.984	89858
860.229	89155
860.474	88493
860.719	88017
860.964	87625
861.209	87110
861.454	86248
861.699	85954
861.943	85493
862.188	85067
862.433	84927
862.678	84460
862.922	84332
863.167	84205
863.411	83947
863.656	83652
863.9	83509
864.145	83206
864.389	82735
864.634	82223
864.878	82010
865.122	81835
865.366	81549
865.61	81335
865.855	81087
866.099	80914
866.343	80506
866.587	80372
866.831	80348
867.074	80210
867.318	80415
867.562	80296
867.806	80074
868.05	79850
868.293	79770
868.537	79705
868.78	79286
869.024	78864
869.267	78292
869.511	77792
869.754	77171
869.998	76599
870.241	75454
870.484	75268
870.728	74507
870.971	74199
871.214	73908
871.457	73497
871.7	73698
871.943	73604
872.186	73684
872.429	73850
872.672	73993
872.915	73646
873.158	73482
873.4	73268
873.643	73129
873.886	72886
874.128	72416
874.371	72489
874.613	72291
874.856	71834
875.098	71643
875.341	71500
875.583	71267
875.825	71112
876.068	70669
876.31	70049
876.552	69693
876.794	69245
877.036	68812
877.278	68123
877.52	67705
877.762	67612
878.004	67205
878.246	66841
878.488	66860
878.73	66855
878.972	66673
879.213	66538
879.455	66509
879.697	66306
879.938	66100
880.18	65970
880.421	65784
880.663	65534
880.904	65587
881.145	65497
881.387	65681
881.628	65602
881.869	65191
882.11	64902
882.352	64597
882.593	64491
882.834	64145
883.075	64216
883.316	64040
883.557	63700
883.797	63224
884.038	62789
884.279	62046
884.52	61313
884.761	60684
885.001	60281
885.242	59711
885.482	59537
885.723	59198
885.963	58893
886.204	58698
886.444	58607
886.685	58273
886.925	57940
887.165	57622
887.405	57440
887.646	57190
887.886	57030
888.126	57051
888.366	56894
888.606	56919
888.846	56939
889.086	56975
889.326	57223
889.565	57171
889.805	57030
890.045	56927
890.285	56720
890.524	56431
890.764	56385
891.003	55800
891.243	55374
891.482	54804
891.722	54320
891.961	53880
892.201	53621
892.44	53376
892.679	52971
892.918	52861
893.158	52609
893.397	52652
893.636	52400
893.875	52218
894.114	52121
894.353	51839
894.592	51286
894.831	51390
895.069	51141
895.308	50753
895.547	50480
895.786	50203
896.024	49874
896.263	49724
896.501	49730
896.74	49641
896.978	49513
897.217	49458
897.455	49237
897.694	49247
897.932	49182
898.17	48822
898.408	48569
898.646	48364
898.885	48132
899.123	47820
899.361	47545
899.599	47283
899.837	47097
900.075	46585
900.312	46423
900.55	45928
900.788	45465
901.026	44975
901.263	44885
901.501	44554
901.739	44148
901.976	44152
902.214	43909
902.451	43613
902.689	43615
902.926	43498
903.163	43273
903.401	43429
903.638	43349
903.875	43373
904.112	43232
904.349	43197
904.586	43027
904.823	42964
905.06	42489
905.297	42340
905.534	42022
905.771	41715
906.008	41239
906.245	41107
906.481	40769
906.718	40695
906.955	40330
907.191	40253
907.428	40138
907.664	39912
907.901	39783
908.137	39673
908.374	39458
908.61	39109
908.846	39112
909.083	38772
909.319	38539
909.555	38370
909.791	38195
910.027	37709
910.263	37398
910.499	37192
910.735	36969
910.971	36444
911.207	36284
911.443	36248
911.678	36084
911.914	35868
912.15	35853
912.385	35606
912.621	35604
912.857	35499
913.092	35459
913.328	35395
913.563	35357
913.798	35297
914.034	35247
914.269	35291
914.504	35085
914.739	35004
914.975	34735
915.21	34522
915.445	34126
915.68	33891
915.915	33476
916.15	33317
916.384	32889
916.619	32538
916.854	32259
917.089	32105
917.324	32003
917.558	31641
917.793	31490
918.028	31246
918.262	31376
918.497	31272
918.731	31086
918.965	31050
919.2	30979
919.434	30980
919.668	30814
919.903	30779
920.137	30614
920.371	30543
920.605	30241
920.839	30106
921.073	29990
921.307	29573
921.541	29380
921.775	29220
922.009	29153
922.243	29078
922.476	29025
922.71	29007
922.944	28936
923.177	28886
923.411	28761
923.644	28707
923.878	28565
924.111	28486
924.345	28308
924.578	28331
924.811	28078
925.045	27866
925.278	27684
925.511	27568
925.744	27439
925.977	27068
926.21	26863
926.443	26775
926.676	26357
926.909	26358
927.142	26208
927.375	25942
927.608	25742
927.841	25656
928.073	25518
928.306	25375
928.539	25372
928.771	25445
929.004	25353
929.236	25315
929.469	25372
929.701	25530
929.933	25523
930.166	25391
930.398	25290
930.63	25354
930.862	25096
931.094	25115
931.327	24891
931.559	24644
931.791	24495
932.023	24324
932.255	24258
932.486	24066
932.718	23758
932.95	23714
933.182	23615
933.413	23448
933.645	23230
933.877	23297
934.108	23178
934.34	23102
934.571	23003
934.803	22904
935.034	22753
935.265	22749
935.497	22601
935.728	22558
935.959	22512
936.19	22323
936.422	22391
936.653	22111
936.884	22015
937.115	21834
937.346	21769
937.577	21558
937.807	21398
938.038	21357
938.269	21391
938.5	21211
938.73	21238
938.961	21248
939.192	21163
939.422	21172
939.653	21174
939.883	21050
940.114	20971
940.344	21019
940.574	20929
940.805	20811
941.035	20678
941.265	20576
941.495	20477
941.726	20082
941.956	20021
942.186	19916
942.416	19787
942.646	19599
942.876	19482
943.105	19276
943.335	19194
943.565	19016
943.795	18877
944.024	18664
944.254	18626
944.484	18490
944.713	18372
944.943	18396
945.172	18332
945.402	18294
945.631	18322
945.86	18189
946.09	18188
946.319	18105
946.548	18155
946.777	18094
947.006	18017
947.235	17967
947.465	17747
947.694	17764
947.922	17609
948.151	17534
948.38	17269
948.609	17278
948.838	17187
949.067	17132
949.295	16999
949.524	16801
949.752	16698
949.981	16664
950.21	16609
950.438	16413
950.666	16360
950.895	16234
951.123	16090
951.351	16061
951.58	15950
951.808	15904
952.036	15729
952.264	15700
952.492	15605
952.72	15538
952.948	15515
953.176	15404
953.404	15204
953.632	15192
953.86	15069
954.088	14932
954.315	14894
954.543	14862
954.771	14759
954.998	14622
955.226	14579
955.453	14458
955.681	14422
955.908	14408
956.135	14365
956.363	14333
956.59	14329
956.817	14326
957.045	14198
957.272	14217
957.499	14096
957.726	14075
957.953	14017
958.18	13982
958.407	13875
958.634	13787
958.861	13768
959.087	13632
959.314	13510
959.541	13401
959.767	13303
959.994	13309
960.221	13066
960.447	12929
960.674	12911
960.9	12776
961.127	12704
961.353	12656
961.579	12512
961.806	12478
962.032	12459
962.258	12377
962.484	12327
962.71	12262
962.936	12202
963.162	12208
963.388	12217
963.614	12100
963.84	12110
964.066	12042
964.292	11998
964.518	11999
964.743	11903
964.969	11875
965.195	11760
965.42	11746
965.646	11711
965.871	11650
966.097	11549
966.322	11488
966.547	11426
966.773	11282
966.998	11265
967.223	11299
967.448	11146
967.674	11100
967.899	10998
968.124	11018
968.349	10935
968.574	10788
968.799	10810
969.024	10795
969.248	10701
969.473	10679
969.698	10575
969.923	10463
970.147	10420
970.372	10327
970.596	10246
970.821	10278
971.046	10118
971.27	10189
971.494	10076
971.719	9951
971.943	9843
972.167	9792
972.392	9744
972.616	9778
972.84	9663
973.064	9550
973.288	9572
973.512	9514
973.736	9434
973.96	9451
974.184	9404
974.408	9408
974.631	9403
974.855	9367
975.079	9289
975.303	9249
975.526	9207
975.75	9171
975.973	9099
976.197	9075
976.42	8971
976.644	8985
976.867	8911
977.09	8828
977.313	8819
977.537	8724
977.76	8667
977.983	8660
978.206	8573
978.429	8492
978.652	8448
978.875	8364
979.098	8350
979.321	8274
979.544	8203
979.767	8205
979.989	8126
980.212	8037
980.435	7997
980.657	7970
980.88	7930
981.102	7954
981.325	7856
981.547	7816
981.77	7764
981.992	7748
982.214	7682
982.437	7637
982.659	7583
982.881	7571
983.103	7582
983.325	7530
983.547	7443
983.769	7419
983.991	7373
984.213	7398
984.435	7333
984.657	7308
984.879	7325
985.1	7196
985.322	7188
985.544	7123
985.765	7147
985.987	7044
986.208	7038
986.43	6977
986.651	6906
986.873	6932
987.094	6925
987.315	6807
987.536	6797
987.758	6800
987.979	6704
988.2	6625
988.421	6582
988.642	6577
988.863	6499
989.084	6464
989.305	6454
989.526	6373
989.747	6397
989.967	6314
990.188	6219
990.409	6160
990.629	6178
990.85	6149
991.071	6100
991.291	6041
991.512	6049
991.732	5936
991.952	6013
992.173	5952
992.393	5884
992.613	5867
992.834	5846
993.054	5821
993.274	5821
993.494	5800
993.714	5785
993.934	5742
994.154	5713
994.374	5720
994.594	5613
994.813	5619
995.033	5643
995.253	5575
995.473	5555
995.692	5468
995.912	5447
996.131	5393
996.351	5366
996.57	5381
996.79	5278
997.009	5253
997.228	5212
997.448	5119
997.667	5085
997.886	5079
998.105	5052
998.325	4990
998.544	5012
998.763	4932
998.982	4878
999.201	4824
999.419	4841
999.638	4743
999.857	4796
1000.076	4744
1000.295	4676
1000.513	4729
1000.732	4665
1000.95	4615
1001.169	4611
1001.388	4597
1001.606	4612
1001.824	4636
1002.043	4558
1002.261	4496
1002.479	4495
1002.698	4494
1002.916	4461
1003.134	4496
1003.352	4404
1003.57	4383
1003.788	4406
1004.006	4317
1004.224	4382
1004.442	4272
1004.66	4312
1004.878	4262
1005.095	4226
1005.313	4214
1005.531	4183
1005.748	4190
1005.966	4285
1006.184	4169
1006.401	4151
1006.618	4082
1006.836	4102
1007.053	4115
1007.271	4010
1007.488	4035
1007.705	4042
1007.922	4045
1008.139	3971
1008.357	3995
1008.574	4000
1008.791	4078
1009.008	4025
1009.225	4040
1009.441	4079
1009.658	4133
1009.875	4074
1010.092	4102
1010.309	4030
1010.525	3990
1010.742	3941
1010.958	3862
1011.175	3870
1011.391	3844
1011.608	3825
1011.824	3765
1012.041	3721
1012.257	3739
1012.473	3709
1012.689	3668
1012.906	3644
1013.122	3647
1013.338	3606
1013.554	3643
1013.77	3593
1013.986	3589
1014.202	3681
1014.418	3694
1014.634	3768
1014.849	3786
1015.065	3802
1015.281	3757
1015.496	3811
1015.712	3740
1015.928	3681
1016.143	3610
1016.359	3551
1016.574	3473
1016.79	3451
1017.005	3406
1017.22	3323
1017.435	3216
1017.651	3208
1017.866	3141
1018.081	3102
1018.296	3050
1018.511	3014
1018.726	2980
1018.941	2970
1019.156	2912
1019.371	2885
1019.586	2895
1019.801	2858
1020.015	2820
1020.23	2834
1020.445	2802
1020.659	2789
1020.874	2743
1021.088	2672
1021.303	2641
1021.517	2588
1021.732	2606
1021.946	2529
1022.16	2542
1022.375	2462
1022.589	2475
1022.803	2432
1023.017	2385
1023.231	2344
1023.445	2295
1023.659	2228
1023.873	2199
1024.087	2130
1024.301	2116
1024.515	2099
1024.729	2071
1024.942	2006
1025.156	1993
1025.37	1962
1025.583	1925
1025.797	1885
1026.01	1845
1026.224	1820
1026.437	1755
1026.651	1706
1026.864	1686
1027.077	1634
1027.291	1583
1027.504	1552
1027.717	1480
1027.93	1452
1028.143	1427
1028.356	1378
1028.569	1309
1028.782	1229
1028.995	-1
1029.208	-1
1029.421	-3
1029.634	-4
