Data from QEP037381__63__14-55-32-278.txt Node

Date: Mon Mar 14 14:55:32 EDT 2022
User: dcclab
Spectrometer: QEP03738
Trigger mode: 4
Integration Time (sec): 2.500000E0
Scans to average: 1
Electric dark correction enabled: true
Nonlinearity correction enabled: false
Boxcar width: 0
XAxis mode: Wavelengths
Number of Pixels in Spectrum: 1044
>>>>>Begin Spectral Data<<<<<
783.959	14.75
784.218	1.75
784.476	-2.25
784.734	-3.25
784.992	338.75
785.251	335.75
785.509	330.75
785.767	323.75
786.025	320.75
786.283	314.75
786.541	315.75
786.798	315.75
787.056	313.75
787.314	301.75
787.572	330.75
787.83	303.75
788.087	324.75
788.345	308.75
788.602	318.75
788.86	320.75
789.117	325.75
789.375	310.75
789.632	322.75
789.89	320.75
790.147	358.75
790.404	343.75
790.661	337.75
790.919	359.75
791.176	370.75
791.433	358.75
791.69	389.75
791.947	378.75
792.204	372.75
792.461	390.75
792.718	410.75
792.974	403.75
793.231	433.75
793.488	459.75
793.745	448.75
794.001	485.75
794.258	504.75
794.514	506.75
794.771	553.75
795.027	563.75
795.284	602.75
795.54	630.75
795.797	666.75
796.053	744.75
796.309	795.75
796.565	865.75
796.822	986.75
797.078	1100.75
797.334	1306.75
797.59	1549.75
797.846	1911.75
798.102	2542.75
798.358	3414.75
798.614	4912.75
798.869	7191.75
799.125	10523.75
799.381	15420.75
799.637	21693.75
799.892	29195.75
800.148	37449.75
800.403	45598.75
800.659	52592.75
800.914	58212.75
801.17	62174.75
801.425	64742.75
801.68	66765.75
801.936	68189.75
802.191	69487.75
802.446	70982.75
802.701	72540.75
802.957	73912.75
803.212	75140.75
803.467	76808.75
803.722	78223.75
803.977	79443.75
804.232	80731.75
804.486	82219.75
804.741	83578.75
804.996	85313.75
805.251	86528.75
805.505	87975.75
805.76	89314.75
806.015	90353.75
806.269	91467.75
806.524	92657.75
806.778	93360.75
807.033	93992.75
807.287	94963.75
807.541	96331.75
807.796	97947.75
808.05	98528.75
808.304	99275.75
808.558	99823.75
808.812	100381.75
809.066	101302.75
809.32	101536.75
809.574	102310.75
809.828	103065.75
810.082	103651.75
810.336	104479.75
810.59	105398.75
810.844	106368.75
811.097	107565.75
811.351	109054.75
811.605	110678.75
811.858	112526.75
812.112	114200.75
812.365	115713.75
812.619	117497.75
812.872	118851.75
813.126	120279.75
813.379	121892.75
813.632	123237.75
813.885	124838.75
814.139	126373.75
814.392	128112.75
814.645	130383.75
814.898	132441.75
815.151	134490.75
815.404	136710.75
815.657	139292.75
815.91	141195.75
816.163	142905.75
816.416	143946.75
816.668	144832.75
816.921	145856.75
817.174	146118.75
817.426	146181.75
817.679	146003.75
817.931	145874.75
818.184	145763.75
818.436	145591.75
818.689	145151.75
818.941	145780.75
819.194	146315.75
819.446	146419.75
819.698	146995.75
819.95	147342.75
820.202	147926.75
820.455	148529.75
820.707	149041.75
820.959	148831.75
821.211	148919.75
821.462	148648.75
821.714	148393.75
821.966	147861.75
822.218	147074.75
822.47	146200.75
822.722	145445.75
822.973	144764.75
823.225	144498.75
823.476	144237.75
823.728	143968.75
823.979	144225.75
824.231	144065.75
824.482	144263.75
824.734	144313.75
824.985	143913.75
825.236	143490.75
825.487	143187.75
825.739	142986.75
825.99	142286.75
826.241	141812.75
826.492	140988.75
826.743	140695.75
826.994	139922.75
827.245	139087.75
827.496	138671.75
827.747	138522.75
827.997	138416.75
828.248	138253.75
828.499	138443.75
828.75	138300.75
829	138463.75
829.251	138344.75
829.501	138162.75
829.752	137362.75
830.002	136912.75
830.253	135646.75
830.503	135125.75
830.753	134130.75
831.004	133329.75
831.254	132662.75
831.504	132207.75
831.754	131944.75
832.004	131672.75
832.254	131462.75
832.504	131438.75
832.754	131522.75
833.004	131325.75
833.254	131392.75
833.504	130920.75
833.754	130608.75
834.003	130117.75
834.253	129893.75
834.503	128913.75
834.752	128148.75
835.002	127091.75
835.252	126659.75
835.501	126010.75
835.75	125436.75
836	125353.75
836.249	125218.75
836.499	124868.75
836.748	124656.75
836.997	124626.75
837.246	124612.75
837.495	125034.75
837.744	125483.75
837.993	125748.75
838.242	125999.75
838.491	125874.75
838.74	124791.75
838.989	123339.75
839.238	122330.75
839.487	121574.75
839.736	120995.75
839.984	120251.75
840.233	119286.75
840.482	118995.75
840.73	118564.75
840.979	117925.75
841.227	117797.75
841.476	116971.75
841.724	116725.75
841.972	116315.75
842.221	116145.75
842.469	115501.75
842.717	115173.75
842.965	114598.75
843.213	114356.75
843.461	114171.75
843.71	113686.75
843.958	113374.75
844.205	112605.75
844.453	112836.75
844.701	112456.75
844.949	112215.75
845.197	112201.75
845.445	112210.75
845.692	112493.75
845.94	112550.75
846.188	112168.75
846.435	112132.75
846.683	111575.75
846.93	111239.75
847.178	110576.75
847.425	109676.75
847.672	108854.75
847.92	107853.75
848.167	107029.75
848.414	106196.75
848.661	105410.75
848.908	104760.75
849.155	104201.75
849.402	104049.75
849.649	103890.75
849.896	104066.75
850.143	104791.75
850.39	105307.75
850.637	105049.75
850.884	105014.75
851.131	104752.75
851.377	104469.75
851.624	104211.75
851.87	103729.75
852.117	103161.75
852.364	102614.75
852.61	102339.75
852.856	101858.75
853.103	101387.75
853.349	100959.75
853.595	100624.75
853.842	99687.75
854.088	99736.75
854.334	99861.75
854.58	99733.75
854.826	99161.75
855.072	98456.75
855.318	97928.75
855.564	96771.75
855.81	95949.75
856.056	95069.75
856.302	94591.75
856.548	93555.75
856.793	93244.75
857.039	92609.75
857.285	92700.75
857.53	92492.75
857.776	92631.75
858.021	92843.75
858.267	92993.75
858.512	93247.75
858.758	93074.75
859.003	93444.75
859.248	93486.75
859.493	93084.75
859.739	92841.75
859.984	92421.75
860.229	92143.75
860.474	91460.75
860.719	91050.75
860.964	90489.75
861.209	89893.75
861.454	89135.75
861.699	88619.75
861.943	88187.75
862.188	87974.75
862.433	88035.75
862.678	87328.75
862.922	86998.75
863.167	86744.75
863.411	86656.75
863.656	86348.75
863.9	86298.75
864.145	85848.75
864.389	85293.75
864.634	84915.75
864.878	84677.75
865.122	84411.75
865.366	84285.75
865.61	84071.75
865.855	84077.75
866.099	83648.75
866.343	83345.75
866.587	83232.75
866.831	82998.75
867.074	83085.75
867.318	83092.75
867.562	83040.75
867.806	82987.75
868.05	82689.75
868.293	82503.75
868.537	82299.75
868.78	82065.75
869.024	81617.75
869.267	81112.75
869.511	80265.75
869.754	79729.75
869.998	78928.75
870.241	78109.75
870.484	77462.75
870.728	77223.75
870.971	76763.75
871.214	76515.75
871.457	76245.75
871.7	76281.75
871.943	76183.75
872.186	76160.75
872.429	76388.75
872.672	76419.75
872.915	76268.75
873.158	76076.75
873.4	75748.75
873.643	75716.75
873.886	75221.75
874.128	75137.75
874.371	74909.75
874.613	74838.75
874.856	74498.75
875.098	74329.75
875.341	73988.75
875.583	73576.75
875.825	73687.75
876.068	73340.75
876.31	72767.75
876.552	72048.75
876.794	71525.75
877.036	70661.75
877.278	70386.75
877.52	69991.75
877.762	69866.75
878.004	69416.75
878.246	69241.75
878.488	69124.75
878.73	68998.75
878.972	68947.75
879.213	68960.75
879.455	68783.75
879.697	68692.75
879.938	68481.75
880.18	68087.75
880.421	67803.75
880.663	67649.75
880.904	67575.75
881.145	67630.75
881.387	67669.75
881.628	67743.75
881.869	67256.75
882.11	67158.75
882.352	67027.75
882.593	66776.75
882.834	66736.75
883.075	66532.75
883.316	66439.75
883.557	65898.75
883.797	65497.75
884.038	65053.75
884.279	64322.75
884.52	63521.75
884.761	62945.75
885.001	62467.75
885.242	62122.75
885.482	61751.75
885.723	61347.75
885.963	61115.75
886.204	60949.75
886.444	60578.75
886.685	60300.75
886.925	60222.75
887.165	60031.75
887.405	59524.75
887.646	59394.75
887.886	59280.75
888.126	59194.75
888.366	59065.75
888.606	59035.75
888.846	59141.75
889.086	59175.75
889.326	59303.75
889.565	59406.75
889.805	59270.75
890.045	59234.75
890.285	58863.75
890.524	58632.75
890.764	58554.75
891.003	58056.75
891.243	57416.75
891.482	56949.75
891.722	56381.75
891.961	55869.75
892.201	55594.75
892.44	55117.75
892.679	54935.75
892.918	54943.75
893.158	54674.75
893.397	54516.75
893.636	54417.75
893.875	54209.75
894.114	53803.75
894.353	53658.75
894.592	53422.75
894.831	53110.75
895.069	52939.75
895.308	52555.75
895.547	52317.75
895.786	52037.75
896.024	52100.75
896.263	51825.75
896.501	51595.75
896.74	51500.75
896.978	51380.75
897.217	51271.75
897.455	51309.75
897.694	51151.75
897.932	51019.75
898.17	50834.75
898.408	50556.75
898.646	50321.75
898.885	49922.75
899.123	49674.75
899.361	49379.75
899.599	49022.75
899.837	48838.75
900.075	48635.75
900.312	48167.75
900.55	47878.75
900.788	47311.75
901.026	46952.75
901.263	46617.75
901.501	46234.75
901.739	46024.75
901.976	45752.75
902.214	45545.75
902.451	45243.75
902.689	45378.75
902.926	45190.75
903.163	45114.75
903.401	45100.75
903.638	45136.75
903.875	44929.75
904.112	44936.75
904.349	44908.75
904.586	44860.75
904.823	44673.75
905.06	44274.75
905.297	43866.75
905.534	43559.75
905.771	43067.75
906.008	42866.75
906.245	42759.75
906.481	42359.75
906.718	42281.75
906.955	41901.75
907.191	41915.75
907.428	41675.75
907.664	41534.75
907.901	41308.75
908.137	41069.75
908.374	40936.75
908.61	40833.75
908.846	40523.75
909.083	40240.75
909.319	39965.75
909.555	39944.75
909.791	39587.75
910.027	39115.75
910.263	38757.75
910.499	38506.75
910.735	38192.75
910.971	37956.75
911.207	37861.75
911.443	37616.75
911.678	37442.75
911.914	37342.75
912.15	37167.75
912.385	37099.75
912.621	37034.75
912.857	37128.75
913.092	37006.75
913.328	36943.75
913.563	36759.75
913.798	36644.75
914.034	36823.75
914.269	36405.75
914.504	36547.75
914.739	36324.75
914.975	36126.75
915.21	35806.75
915.445	35647.75
915.68	35307.75
915.915	35035.75
916.15	34735.75
916.384	34049.75
916.619	33789.75
916.854	33587.75
917.089	33471.75
917.324	33282.75
917.558	32860.75
917.793	32659.75
918.028	32463.75
918.262	32471.75
918.497	32424.75
918.731	32391.75
918.965	32307.75
919.2	32320.75
919.434	32365.75
919.668	32313.75
919.903	32071.75
920.137	32040.75
920.371	31914.75
920.605	31709.75
920.839	31331.75
921.073	31095.75
921.307	30958.75
921.541	30663.75
921.775	30568.75
922.009	30416.75
922.243	30261.75
922.476	30304.75
922.71	30237.75
922.944	30269.75
923.177	30125.75
923.411	30089.75
923.644	30005.75
923.878	30008.75
924.111	29916.75
924.345	29788.75
924.578	29681.75
924.811	29381.75
925.045	29296.75
925.278	29226.75
925.511	28821.75
925.744	28585.75
925.977	28367.75
926.21	28193.75
926.443	27917.75
926.676	27751.75
926.909	27522.75
927.142	27469.75
927.375	27109.75
927.608	27047.75
927.841	27034.75
928.073	26808.75
928.306	26736.75
928.539	26668.75
928.771	26586.75
929.004	26644.75
929.236	26581.75
929.469	26710.75
929.701	26724.75
929.933	26692.75
930.166	26686.75
930.398	26596.75
930.63	26596.75
930.862	26463.75
931.094	26215.75
931.327	26201.75
931.559	25952.75
931.791	25731.75
932.023	25717.75
932.255	25401.75
932.486	25275.75
932.718	25019.75
932.95	24925.75
933.182	24742.75
933.413	24742.75
933.645	24650.75
933.877	24534.75
934.108	24428.75
934.34	24298.75
934.571	24279.75
934.803	24108.75
935.034	23943.75
935.265	23876.75
935.497	23847.75
935.728	23801.75
935.959	23734.75
936.19	23535.75
936.422	23512.75
936.653	23425.75
936.884	23251.75
937.115	23027.75
937.346	22958.75
937.577	22746.75
937.807	22626.75
938.038	22588.75
938.269	22659.75
938.5	22573.75
938.73	22481.75
938.961	22350.75
939.192	22530.75
939.422	22481.75
939.653	22342.75
939.883	22442.75
940.114	22342.75
940.344	22192.75
940.574	22144.75
940.805	22061.75
941.035	21901.75
941.265	21759.75
941.495	21610.75
941.726	21478.75
941.956	21288.75
942.186	21268.75
942.416	21028.75
942.646	20936.75
942.876	20728.75
943.105	20508.75
943.335	20434.75
943.565	20367.75
943.795	20167.75
944.024	20059.75
944.254	19836.75
944.484	19761.75
944.713	19724.75
944.943	19667.75
945.172	19550.75
945.402	19586.75
945.631	19418.75
945.86	19424.75
946.09	19401.75
946.319	19417.75
946.548	19393.75
946.777	19403.75
947.006	19333.75
947.235	19240.75
947.465	19260.75
947.694	18974.75
947.922	19065.75
948.151	18827.75
948.38	18528.75
948.609	18497.75
948.838	18474.75
949.067	18325.75
949.295	18172.75
949.524	18149.75
949.752	18015.75
949.981	17952.75
950.21	17811.75
950.438	17755.75
950.666	17625.75
950.895	17513.75
951.123	17444.75
951.351	17417.75
951.58	17177.75
951.808	17283.75
952.036	17128.75
952.264	17060.75
952.492	17007.75
952.72	16868.75
952.948	16844.75
953.176	16712.75
953.404	16516.75
953.632	16440.75
953.86	16341.75
954.088	16156.75
954.315	16024.75
954.543	16020.75
954.771	15919.75
954.998	15900.75
955.226	15895.75
955.453	15816.75
955.681	15746.75
955.908	15608.75
956.135	15587.75
956.363	15466.75
956.59	15511.75
956.817	15471.75
957.045	15430.75
957.272	15369.75
957.499	15264.75
957.726	15234.75
957.953	15167.75
958.18	15105.75
958.407	15008.75
958.634	14988.75
958.861	14846.75
959.087	14859.75
959.314	14683.75
959.541	14624.75
959.767	14542.75
959.994	14330.75
960.221	14267.75
960.447	14128.75
960.674	14093.75
960.9	13806.75
961.127	13840.75
961.353	13768.75
961.579	13691.75
961.806	13633.75
962.032	13468.75
962.258	13462.75
962.484	13402.75
962.71	13280.75
962.936	13267.75
963.162	13173.75
963.388	13196.75
963.614	13129.75
963.84	13152.75
964.066	13142.75
964.292	13082.75
964.518	12973.75
964.743	13062.75
964.969	12899.75
965.195	12894.75
965.42	12761.75
965.646	12761.75
965.871	12735.75
966.097	12599.75
966.322	12557.75
966.547	12536.75
966.773	12389.75
966.998	12374.75
967.223	12322.75
967.448	12165.75
967.674	12118.75
967.899	12081.75
968.124	11991.75
968.349	11851.75
968.574	11935.75
968.799	11748.75
969.024	11683.75
969.248	11623.75
969.473	11627.75
969.698	11497.75
969.923	11427.75
970.147	11382.75
970.372	11327.75
970.596	11242.75
970.821	11327.75
971.046	11143.75
971.27	11128.75
971.494	10993.75
971.719	10925.75
971.943	10861.75
972.167	10744.75
972.392	10690.75
972.616	10639.75
972.84	10562.75
973.064	10534.75
973.288	10500.75
973.512	10440.75
973.736	10434.75
973.96	10404.75
974.184	10364.75
974.408	10308.75
974.631	10274.75
974.855	10204.75
975.079	10153.75
975.303	10132.75
975.526	10144.75
975.75	9988.75
975.973	10016.75
976.197	9919.75
976.42	9884.75
976.644	9847.75
976.867	9773.75
977.09	9677.75
977.313	9636.75
977.537	9577.75
977.76	9523.75
977.983	9522.75
978.206	9389.75
978.429	9249.75
978.652	9250.75
978.875	9142.75
979.098	9130.75
979.321	9094.75
979.544	9008.75
979.767	8969.75
979.989	8939.75
980.212	8820.75
980.435	8769.75
980.657	8757.75
980.88	8711.75
981.102	8658.75
981.325	8605.75
981.547	8556.75
981.77	8535.75
981.992	8490.75
982.214	8344.75
982.437	8401.75
982.659	8322.75
982.881	8334.75
983.103	8374.75
983.325	8242.75
983.547	8155.75
983.769	8108.75
983.991	8077.75
984.213	8039.75
984.435	7996.75
984.657	7942.75
984.879	7933.75
985.1	7849.75
985.322	7841.75
985.544	7781.75
985.765	7803.75
985.987	7759.75
986.208	7745.75
986.43	7663.75
986.651	7554.75
986.873	7580.75
987.094	7505.75
987.315	7457.75
987.536	7431.75
987.758	7374.75
987.979	7273.75
988.2	7301.75
988.421	7142.75
988.642	7180.75
988.863	7112.75
989.084	7044.75
989.305	7009.75
989.526	6959.75
989.747	6880.75
989.967	6938.75
990.188	6845.75
990.409	6784.75
990.629	6722.75
990.85	6652.75
991.071	6661.75
991.291	6593.75
991.512	6491.75
991.732	6577.75
991.952	6452.75
992.173	6452.75
992.393	6435.75
992.613	6338.75
992.834	6393.75
993.054	6395.75
993.274	6348.75
993.494	6285.75
993.714	6304.75
993.934	6261.75
994.154	6206.75
994.374	6211.75
994.594	6187.75
994.813	6115.75
995.033	6082.75
995.253	6059.75
995.473	5983.75
995.692	6003.75
995.912	5958.75
996.131	5949.75
996.351	5830.75
996.57	5798.75
996.79	5777.75
997.009	5740.75
997.228	5730.75
997.448	5577.75
997.667	5565.75
997.886	5501.75
998.105	5490.75
998.325	5420.75
998.544	5375.75
998.763	5361.75
998.982	5343.75
999.201	5228.75
999.419	5212.75
999.638	5133.75
999.857	5197.75
1000.076	5129.75
1000.295	5093.75
1000.513	5130.75
1000.732	5085.75
1000.95	5036.75
1001.169	5066.75
1001.388	5041.75
1001.606	4993.75
1001.824	4973.75
1002.043	4923.75
1002.261	4885.75
1002.479	4881.75
1002.698	4874.75
1002.916	4801.75
1003.134	4786.75
1003.352	4792.75
1003.57	4769.75
1003.788	4725.75
1004.006	4693.75
1004.224	4694.75
1004.442	4582.75
1004.66	4601.75
1004.878	4596.75
1005.095	4564.75
1005.313	4562.75
1005.531	4493.75
1005.748	4510.75
1005.966	4595.75
1006.184	4426.75
1006.401	4484.75
1006.618	4437.75
1006.836	4425.75
1007.053	4398.75
1007.271	4393.75
1007.488	4329.75
1007.705	4337.75
1007.922	4254.75
1008.139	4295.75
1008.357	4287.75
1008.574	4320.75
1008.791	4322.75
1009.008	4353.75
1009.225	4242.75
1009.441	4348.75
1009.658	4341.75
1009.875	4339.75
1010.092	4316.75
1010.309	4278.75
1010.525	4213.75
1010.742	4228.75
1010.958	4074.75
1011.175	4101.75
1011.391	4091.75
1011.608	4057.75
1011.824	4001.75
1012.041	3965.75
1012.257	3931.75
1012.473	3914.75
1012.689	3840.75
1012.906	3875.75
1013.122	3860.75
1013.338	3806.75
1013.554	3837.75
1013.77	3799.75
1013.986	3850.75
1014.202	3852.75
1014.418	3901.75
1014.634	3936.75
1014.849	3944.75
1015.065	3975.75
1015.281	3985.75
1015.496	3936.75
1015.712	3873.75
1015.928	3867.75
1016.143	3732.75
1016.359	3746.75
1016.574	3700.75
1016.79	3659.75
1017.005	3588.75
1017.22	3491.75
1017.435	3418.75
1017.651	3366.75
1017.866	3334.75
1018.081	3233.75
1018.296	3171.75
1018.511	3162.75
1018.726	3154.75
1018.941	3098.75
1019.156	3076.75
1019.371	3051.75
1019.586	3054.75
1019.801	3026.75
1020.015	2982.75
1020.23	2962.75
1020.445	2953.75
1020.659	2888.75
1020.874	2884.75
1021.088	2814.75
1021.303	2830.75
1021.517	2739.75
1021.732	2729.75
1021.946	2726.75
1022.16	2719.75
1022.375	2666.75
1022.589	2598.75
1022.803	2572.75
1023.017	2546.75
1023.231	2464.75
1023.445	2489.75
1023.659	2387.75
1023.873	2325.75
1024.087	2266.75
1024.301	2278.75
1024.515	2211.75
1024.729	2190.75
1024.942	2109.75
1025.156	2106.75
1025.37	2064.75
1025.583	2002.75
1025.797	1976.75
1026.01	1972.75
1026.224	1930.75
1026.437	1842.75
1026.651	1819.75
1026.864	1746.75
1027.077	1719.75
1027.291	1701.75
1027.504	1640.75
1027.717	1588.75
1027.93	1545.75
1028.143	1508.75
1028.356	1456.75
1028.569	1390.75
1028.782	1298.75
1028.995	-5.25
1029.208	0.75
1029.421	-3.25
1029.634	-3.25
