Data from QEP037381__66__14-55-39-775.txt Node

Date: Mon Mar 14 14:55:39 EDT 2022
User: dcclab
Spectrometer: QEP03738
Trigger mode: 4
Integration Time (sec): 2.500000E0
Scans to average: 1
Electric dark correction enabled: true
Nonlinearity correction enabled: false
Boxcar width: 0
XAxis mode: Wavelengths
Number of Pixels in Spectrum: 1044
>>>>>Begin Spectral Data<<<<<
783.959	13.38
784.218	-2.62
784.476	-0.62
784.734	-1.62
784.992	357.38
785.251	333.38
785.509	327.38
785.767	337.38
786.025	330.38
786.283	316.38
786.541	315.38
786.798	312.38
787.056	316.38
787.314	305.38
787.572	307.38
787.83	319.38
788.087	325.38
788.345	305.38
788.602	323.38
788.86	314.38
789.117	338.38
789.375	325.38
789.632	326.38
789.89	323.38
790.147	351.38
790.404	347.38
790.661	359.38
790.919	379.38
791.176	358.38
791.433	377.38
791.69	389.38
791.947	389.38
792.204	381.38
792.461	402.38
792.718	410.38
792.974	416.38
793.231	422.38
793.488	459.38
793.745	447.38
794.001	480.38
794.258	524.38
794.514	523.38
794.771	549.38
795.027	590.38
795.284	614.38
795.54	675.38
795.797	674.38
796.053	762.38
796.309	808.38
796.565	900.38
796.822	1015.38
797.078	1131.38
797.334	1299.38
797.59	1585.38
797.846	2032.38
798.102	2592.38
798.358	3526.38
798.614	5063.38
798.869	7377.38
799.125	10864.38
799.381	15987.38
799.637	22347.38
799.892	30157.38
800.148	38561.38
800.403	47006.38
800.659	54315.38
800.914	60144.38
801.17	64063.38
801.425	66823.38
801.68	68811.38
801.936	70236.38
802.191	71858.38
802.446	73518.38
802.701	74917.38
802.957	76490.38
803.212	77830.38
803.467	79250.38
803.722	80729.38
803.977	82185.38
804.232	83685.38
804.486	85038.38
804.741	86420.38
804.996	88127.38
805.251	89433.38
805.505	90879.38
805.76	92028.38
806.015	93567.38
806.269	94696.38
806.524	95749.38
806.778	96333.38
807.033	97148.38
807.287	98183.38
807.541	99464.38
807.796	100604.38
808.05	101719.38
808.304	102714.38
808.558	103056.38
808.812	103761.38
809.066	104634.38
809.32	105158.38
809.574	105689.38
809.828	106544.38
810.082	106963.38
810.336	108019.38
810.59	109024.38
810.844	109831.38
811.097	111234.38
811.351	112654.38
811.605	114104.38
811.858	115862.38
812.112	117528.38
812.365	119486.38
812.619	121186.38
812.872	122788.38
813.126	124313.38
813.379	125794.38
813.632	127489.38
813.885	129058.38
814.139	130393.38
814.392	132517.38
814.645	134470.38
814.898	136431.38
815.151	138931.38
815.404	141017.38
815.657	143570.38
815.91	145651.38
816.163	147524.38
816.416	148544.38
816.668	149762.38
816.921	150532.38
817.174	150588.38
817.426	150941.38
817.679	150767.38
817.931	150574.38
818.184	150326.38
818.436	150216.38
818.689	150134.38
818.941	150658.38
819.194	150889.38
819.446	151192.38
819.698	151688.38
819.95	152192.38
820.202	152940.38
820.455	153356.38
820.707	153894.38
820.959	153505.38
821.211	153704.38
821.462	153170.38
821.714	152886.38
821.966	152577.38
822.218	151740.38
822.47	150828.38
822.722	149809.38
822.973	149389.38
823.225	149199.38
823.476	148857.38
823.728	148660.38
823.979	148648.38
824.231	148509.38
824.482	148563.38
824.734	149070.38
824.985	148659.38
825.236	148373.38
825.487	148143.38
825.739	147493.38
825.99	146888.38
826.241	146562.38
826.492	145348.38
826.743	144988.38
826.994	143914.38
827.245	143612.38
827.496	143169.38
827.747	142499.38
827.997	142741.38
828.248	142784.38
828.499	142684.38
828.75	142703.38
829	143116.38
829.251	142872.38
829.501	142389.38
829.752	142006.38
830.002	140981.38
830.253	139972.38
830.503	139379.38
830.753	138148.38
831.004	137350.38
831.254	136508.38
831.504	136348.38
831.754	135833.38
832.004	135821.38
832.254	135821.38
832.504	135561.38
832.754	135419.38
833.004	135566.38
833.254	135141.38
833.504	134991.38
833.754	134636.38
834.003	134095.38
834.253	133586.38
834.503	132872.38
834.752	132057.38
835.002	131226.38
835.252	130530.38
835.501	129857.38
835.75	129227.38
836	129123.38
836.249	128952.38
836.499	128831.38
836.748	128396.38
836.997	128557.38
837.246	128738.38
837.495	129045.38
837.744	129343.38
837.993	129673.38
838.242	129761.38
838.491	129599.38
838.74	128211.38
838.989	126853.38
839.238	126173.38
839.487	125208.38
839.736	124479.38
839.984	123892.38
840.233	123113.38
840.482	122597.38
840.73	121674.38
840.979	121355.38
841.227	120935.38
841.476	120610.38
841.724	120327.38
841.972	119977.38
842.221	119741.38
842.469	119070.38
842.717	118642.38
842.965	118141.38
843.213	117920.38
843.461	117628.38
843.71	116950.38
843.958	116367.38
844.205	116325.38
844.453	116138.38
844.701	115779.38
844.949	115935.38
845.197	115495.38
845.445	115435.38
845.692	115666.38
845.94	115885.38
846.188	115698.38
846.435	115310.38
846.683	115048.38
846.93	114670.38
847.178	113748.38
847.425	112804.38
847.672	112178.38
847.92	111221.38
848.167	110287.38
848.414	109164.38
848.661	108320.38
848.908	107331.38
849.155	107260.38
849.402	107083.38
849.649	107131.38
849.896	107207.38
850.143	107904.38
850.39	108414.38
850.637	108322.38
850.884	107992.38
851.131	107798.38
851.377	107472.38
851.624	107229.38
851.87	106751.38
852.117	106158.38
852.364	105683.38
852.61	105399.38
852.856	105002.38
853.103	104313.38
853.349	103907.38
853.595	103507.38
853.842	102531.38
854.088	102338.38
854.334	102576.38
854.58	102649.38
854.826	102168.38
855.072	101468.38
855.318	100808.38
855.564	99816.38
855.81	98762.38
856.056	97746.38
856.302	97048.38
856.548	96526.38
856.793	95810.38
857.039	95446.38
857.285	95211.38
857.53	95118.38
857.776	95156.38
858.021	95557.38
858.267	95851.38
858.512	95820.38
858.758	95890.38
859.003	96067.38
859.248	96066.38
859.493	95973.38
859.739	95699.38
859.984	95071.38
860.229	94880.38
860.474	94116.38
860.719	93732.38
860.964	93111.38
861.209	92528.38
861.454	91943.38
861.699	91416.38
861.943	90828.38
862.188	90581.38
862.433	90465.38
862.678	89844.38
862.922	89755.38
863.167	89431.38
863.411	89241.38
863.656	89114.38
863.9	88671.38
864.145	88341.38
864.389	87856.38
864.634	87524.38
864.878	87186.38
865.122	86729.38
865.366	86671.38
865.61	86357.38
865.855	86201.38
866.099	86050.38
866.343	85903.38
866.587	85705.38
866.831	85593.38
867.074	85332.38
867.318	85579.38
867.562	85318.38
867.806	85291.38
868.05	84944.38
868.293	84688.38
868.537	84395.38
868.78	84325.38
869.024	83951.38
869.267	83366.38
869.511	82634.38
869.754	82014.38
869.998	81260.38
870.241	80486.38
870.484	79763.38
870.728	79420.38
870.971	78987.38
871.214	78532.38
871.457	78583.38
871.7	78323.38
871.943	78323.38
872.186	78232.38
872.429	78550.38
872.672	78885.38
872.915	78445.38
873.158	78203.38
873.4	77955.38
873.643	77746.38
873.886	77505.38
874.128	77397.38
874.371	77003.38
874.613	76888.38
874.856	76491.38
875.098	76179.38
875.341	76290.38
875.583	75928.38
875.825	75689.38
876.068	75286.38
876.31	74809.38
876.552	74161.38
876.794	73433.38
877.036	73023.38
877.278	72446.38
877.52	72140.38
877.762	71721.38
878.004	71239.38
878.246	71301.38
878.488	71032.38
878.73	70962.38
878.972	71034.38
879.213	70814.38
879.455	70674.38
879.697	70664.38
879.938	70266.38
880.18	70085.38
880.421	69677.38
880.663	69723.38
880.904	69601.38
881.145	69730.38
881.387	69561.38
881.628	69412.38
881.869	69154.38
882.11	69034.38
882.352	68722.38
882.593	68474.38
882.834	68558.38
883.075	68337.38
883.316	68084.38
883.557	67885.38
883.797	67424.38
884.038	67057.38
884.279	66242.38
884.52	65237.38
884.761	64734.38
885.001	64310.38
885.242	63793.38
885.482	63452.38
885.723	63113.38
885.963	63013.38
886.204	62608.38
886.444	62264.38
886.685	62170.38
886.925	61713.38
887.165	61606.38
887.405	61158.38
887.646	61051.38
887.886	60943.38
888.126	60812.38
888.366	60849.38
888.606	60737.38
888.846	60974.38
889.086	61136.38
889.326	61000.38
889.565	60963.38
889.805	61041.38
890.045	60740.38
890.285	60377.38
890.524	60344.38
890.764	60201.38
891.003	59714.38
891.243	58966.38
891.482	58418.38
891.722	57885.38
891.961	57444.38
892.201	57088.38
892.44	56806.38
892.679	56735.38
892.918	56484.38
893.158	56178.38
893.397	56056.38
893.636	55894.38
893.875	55586.38
894.114	55622.38
894.353	55047.38
894.592	54831.38
894.831	54720.38
895.069	54317.38
895.308	54023.38
895.547	53722.38
895.786	53486.38
896.024	53261.38
896.263	53232.38
896.501	53095.38
896.74	52891.38
896.978	52905.38
897.217	52826.38
897.455	52670.38
897.694	52433.38
897.932	52290.38
898.17	52223.38
898.408	51906.38
898.646	51825.38
898.885	51199.38
899.123	51028.38
899.361	50824.38
899.599	50525.38
899.837	50228.38
900.075	50096.38
900.312	49572.38
900.55	49260.38
900.788	48796.38
901.026	48278.38
901.263	47976.38
901.501	47462.38
901.739	47268.38
901.976	46990.38
902.214	46863.38
902.451	46549.38
902.689	46504.38
902.926	46401.38
903.163	46325.38
903.401	46307.38
903.638	46340.38
903.875	46099.38
904.112	46160.38
904.349	46099.38
904.586	46023.38
904.823	45888.38
905.06	45542.38
905.297	45182.38
905.534	44631.38
905.771	44405.38
906.008	44142.38
906.245	43906.38
906.481	43568.38
906.718	43557.38
906.955	43263.38
907.191	43124.38
907.428	42817.38
907.664	42662.38
907.901	42524.38
908.137	42229.38
908.374	42036.38
908.61	41845.38
908.846	41656.38
909.083	41266.38
909.319	41074.38
909.555	40959.38
909.791	40622.38
910.027	40245.38
910.263	39964.38
910.499	39627.38
910.735	39404.38
910.971	39049.38
911.207	38819.38
911.443	38550.38
911.678	38382.38
911.914	38406.38
912.15	38268.38
912.385	38363.38
912.621	38050.38
912.857	38113.38
913.092	38055.38
913.328	37989.38
913.563	37920.38
913.798	37757.38
914.034	37683.38
914.269	37663.38
914.504	37464.38
914.739	37364.38
914.975	37185.38
915.21	36816.38
915.445	36510.38
915.68	36219.38
915.915	35992.38
916.15	35625.38
916.384	35138.38
916.619	34767.38
916.854	34440.38
917.089	34300.38
917.324	34169.38
917.558	33765.38
917.793	33584.38
918.028	33434.38
918.262	33280.38
918.497	33288.38
918.731	33181.38
918.965	33341.38
919.2	33204.38
919.434	33285.38
919.668	33100.38
919.903	33132.38
920.137	32885.38
920.371	32671.38
920.605	32395.38
920.839	32136.38
921.073	31898.38
921.307	31740.38
921.541	31689.38
921.775	31435.38
922.009	31286.38
922.243	31097.38
922.476	31125.38
922.71	31119.38
922.944	31024.38
923.177	30858.38
923.411	30876.38
923.644	30891.38
923.878	30752.38
924.111	30734.38
924.345	30614.38
924.578	30424.38
924.811	30336.38
925.045	30063.38
925.278	29839.38
925.511	29623.38
925.744	29501.38
925.977	29187.38
926.21	28943.38
926.443	28648.38
926.676	28473.38
926.909	28225.38
927.142	28205.38
927.375	28046.38
927.608	27794.38
927.841	27664.38
928.073	27520.38
928.306	27349.38
928.539	27463.38
928.771	27488.38
929.004	27398.38
929.236	27390.38
929.469	27359.38
929.701	27269.38
929.933	27429.38
930.166	27330.38
930.398	27266.38
930.63	27194.38
930.862	27176.38
931.094	26892.38
931.327	26735.38
931.559	26725.38
931.791	26523.38
932.023	26362.38
932.255	26089.38
932.486	25763.38
932.718	25782.38
932.95	25469.38
933.182	25464.38
933.413	25330.38
933.645	25247.38
933.877	25144.38
934.108	25170.38
934.34	24901.38
934.571	24785.38
934.803	24780.38
935.034	24551.38
935.265	24627.38
935.497	24558.38
935.728	24372.38
935.959	24203.38
936.19	24179.38
936.422	24082.38
936.653	23960.38
936.884	23904.38
937.115	23786.38
937.346	23609.38
937.577	23433.38
937.807	23197.38
938.038	23225.38
938.269	23193.38
938.5	23093.38
938.73	23103.38
938.961	22972.38
939.192	23077.38
939.422	22948.38
939.653	22930.38
939.883	22959.38
940.114	22733.38
940.344	22837.38
940.574	22664.38
940.805	22531.38
941.035	22429.38
941.265	22315.38
941.495	22082.38
941.726	21976.38
941.956	21811.38
942.186	21706.38
942.416	21557.38
942.646	21451.38
942.876	21227.38
943.105	21155.38
943.335	21014.38
943.565	20825.38
943.795	20632.38
944.024	20414.38
944.254	20350.38
944.484	20235.38
944.713	20100.38
944.943	20102.38
945.172	19926.38
945.402	19969.38
945.631	20015.38
945.86	19984.38
946.09	19980.38
946.319	19939.38
946.548	19861.38
946.777	19905.38
947.006	19836.38
947.235	19658.38
947.465	19614.38
947.694	19602.38
947.922	19362.38
948.151	19368.38
948.38	19153.38
948.609	19048.38
948.838	18996.38
949.067	18848.38
949.295	18704.38
949.524	18453.38
949.752	18449.38
949.981	18432.38
950.21	18347.38
950.438	18157.38
950.666	18096.38
950.895	17999.38
951.123	17893.38
951.351	17728.38
951.58	17680.38
951.808	17678.38
952.036	17558.38
952.264	17569.38
952.492	17445.38
952.72	17377.38
952.948	17214.38
953.176	17139.38
953.404	16954.38
953.632	16854.38
953.86	16754.38
954.088	16514.38
954.315	16579.38
954.543	16315.38
954.771	16334.38
954.998	16370.38
955.226	16213.38
955.453	16142.38
955.681	16066.38
955.908	16106.38
956.135	15937.38
956.363	15897.38
956.59	15939.38
956.817	15875.38
957.045	15836.38
957.272	15759.38
957.499	15732.38
957.726	15660.38
957.953	15605.38
958.18	15485.38
958.407	15344.38
958.634	15339.38
958.861	15258.38
959.087	15239.38
959.314	14971.38
959.541	14927.38
959.767	14777.38
959.994	14635.38
960.221	14569.38
960.447	14449.38
960.674	14424.38
960.9	14258.38
961.127	14146.38
961.353	14057.38
961.579	13927.38
961.806	13914.38
962.032	13856.38
962.258	13729.38
962.484	13727.38
962.71	13705.38
962.936	13557.38
963.162	13596.38
963.388	13595.38
963.614	13547.38
963.84	13447.38
964.066	13476.38
964.292	13422.38
964.518	13371.38
964.743	13269.38
964.969	13227.38
965.195	13254.38
965.42	13069.38
965.646	13022.38
965.871	12984.38
966.097	12877.38
966.322	12903.38
966.547	12803.38
966.773	12686.38
966.998	12612.38
967.223	12620.38
967.448	12429.38
967.674	12407.38
967.899	12392.38
968.124	12311.38
968.349	12188.38
968.574	12114.38
968.799	12178.38
969.024	12030.38
969.248	11978.38
969.473	11875.38
969.698	11724.38
969.923	11779.38
970.147	11706.38
970.372	11640.38
970.596	11601.38
970.821	11537.38
971.046	11394.38
971.27	11371.38
971.494	11326.38
971.719	11256.38
971.943	11069.38
972.167	11013.38
972.392	10904.38
972.616	10798.38
972.84	10870.38
973.064	10723.38
973.288	10669.38
973.512	10681.38
973.736	10637.38
973.96	10666.38
974.184	10593.38
974.408	10536.38
974.631	10584.38
974.855	10457.38
975.079	10441.38
975.303	10340.38
975.526	10358.38
975.75	10261.38
975.973	10249.38
976.197	10230.38
976.42	10173.38
976.644	10079.38
976.867	10054.38
977.09	9965.38
977.313	9941.38
977.537	9758.38
977.76	9736.38
977.983	9643.38
978.206	9606.38
978.429	9584.38
978.652	9493.38
978.875	9353.38
979.098	9325.38
979.321	9200.38
979.544	9273.38
979.767	9151.38
979.989	9044.38
980.212	9036.38
980.435	8998.38
980.657	8908.38
980.88	8882.38
981.102	8901.38
981.325	8827.38
981.547	8778.38
981.77	8681.38
981.992	8672.38
982.214	8589.38
982.437	8568.38
982.659	8563.38
982.881	8519.38
983.103	8457.38
983.325	8397.38
983.547	8363.38
983.769	8341.38
983.991	8291.38
984.213	8221.38
984.435	8238.38
984.657	8189.38
984.879	8198.38
985.1	8093.38
985.322	8044.38
985.544	7982.38
985.765	7980.38
985.987	7950.38
986.208	7871.38
986.43	7835.38
986.651	7778.38
986.873	7665.38
987.094	7646.38
987.315	7601.38
987.536	7555.38
987.758	7510.38
987.979	7442.38
988.2	7423.38
988.421	7365.38
988.642	7354.38
988.863	7260.38
989.084	7177.38
989.305	7101.38
989.526	7189.38
989.747	7071.38
989.967	7016.38
990.188	6946.38
990.409	6855.38
990.629	6914.38
990.85	6825.38
991.071	6770.38
991.291	6724.38
991.512	6718.38
991.732	6633.38
991.952	6669.38
992.173	6569.38
992.393	6589.38
992.613	6543.38
992.834	6574.38
993.054	6505.38
993.274	6490.38
993.494	6442.38
993.714	6445.38
993.934	6412.38
994.154	6372.38
994.374	6299.38
994.594	6325.38
994.813	6258.38
995.033	6263.38
995.253	6227.38
995.473	6205.38
995.692	6098.38
995.912	6094.38
996.131	6091.38
996.351	5993.38
996.57	5937.38
996.79	5902.38
997.009	5825.38
997.228	5766.38
997.448	5748.38
997.667	5661.38
997.886	5601.38
998.105	5585.38
998.325	5495.38
998.544	5492.38
998.763	5432.38
998.982	5399.38
999.201	5344.38
999.419	5341.38
999.638	5309.38
999.857	5229.38
1000.076	5258.38
1000.295	5238.38
1000.513	5208.38
1000.732	5156.38
1000.95	5113.38
1001.169	5119.38
1001.388	5078.38
1001.606	5099.38
1001.824	5051.38
1002.043	5009.38
1002.261	5034.38
1002.479	4985.38
1002.698	4969.38
1002.916	4913.38
1003.134	4905.38
1003.352	4866.38
1003.57	4870.38
1003.788	4851.38
1004.006	4819.38
1004.224	4788.38
1004.442	4722.38
1004.66	4728.38
1004.878	4644.38
1005.095	4713.38
1005.313	4670.38
1005.531	4629.38
1005.748	4576.38
1005.966	4674.38
1006.184	4574.38
1006.401	4582.38
1006.618	4521.38
1006.836	4468.38
1007.053	4454.38
1007.271	4450.38
1007.488	4408.38
1007.705	4463.38
1007.922	4438.38
1008.139	4385.38
1008.357	4342.38
1008.574	4377.38
1008.791	4407.38
1009.008	4414.38
1009.225	4420.38
1009.441	4382.38
1009.658	4439.38
1009.875	4416.38
1010.092	4357.38
1010.309	4342.38
1010.525	4345.38
1010.742	4276.38
1010.958	4186.38
1011.175	4237.38
1011.391	4147.38
1011.608	4131.38
1011.824	4064.38
1012.041	4007.38
1012.257	4038.38
1012.473	3988.38
1012.689	3928.38
1012.906	3922.38
1013.122	3909.38
1013.338	3897.38
1013.554	3938.38
1013.77	3823.38
1013.986	3900.38
1014.202	3900.38
1014.418	3952.38
1014.634	4015.38
1014.849	4024.38
1015.065	4054.38
1015.281	4008.38
1015.496	3997.38
1015.712	3986.38
1015.928	3909.38
1016.143	3851.38
1016.359	3794.38
1016.574	3703.38
1016.79	3667.38
1017.005	3612.38
1017.22	3584.38
1017.435	3501.38
1017.651	3415.38
1017.866	3340.38
1018.081	3316.38
1018.296	3286.38
1018.511	3232.38
1018.726	3173.38
1018.941	3141.38
1019.156	3133.38
1019.371	3080.38
1019.586	3062.38
1019.801	3077.38
1020.015	3102.38
1020.23	3073.38
1020.445	3019.38
1020.659	2960.38
1020.874	2929.38
1021.088	2876.38
1021.303	2825.38
1021.517	2802.38
1021.732	2802.38
1021.946	2726.38
1022.16	2761.38
1022.375	2728.38
1022.589	2646.38
1022.803	2624.38
1023.017	2523.38
1023.231	2519.38
1023.445	2493.38
1023.659	2425.38
1023.873	2405.38
1024.087	2313.38
1024.301	2306.38
1024.515	2268.38
1024.729	2248.38
1024.942	2179.38
1025.156	2149.38
1025.37	2103.38
1025.583	2062.38
1025.797	2040.38
1026.01	1981.38
1026.224	1917.38
1026.437	1893.38
1026.651	1841.38
1026.864	1783.38
1027.077	1778.38
1027.291	1716.38
1027.504	1658.38
1027.717	1617.38
1027.93	1571.38
1028.143	1560.38
1028.356	1479.38
1028.569	1415.38
1028.782	1313.38
1028.995	0.38
1029.208	-3.62
1029.421	-1.62
1029.634	-3.62
