Data from QEP037381__89__14-56-37-276.txt Node

Date: Mon Mar 14 14:56:37 EDT 2022
User: dcclab
Spectrometer: QEP03738
Trigger mode: 4
Integration Time (sec): 2.500000E0
Scans to average: 1
Electric dark correction enabled: true
Nonlinearity correction enabled: false
Boxcar width: 0
XAxis mode: Wavelengths
Number of Pixels in Spectrum: 1044
>>>>>Begin Spectral Data<<<<<
783.959	13.25
784.218	1.25
784.476	0.25
784.734	-4.75
784.992	333.25
785.251	327.25
785.509	319.25
785.767	318.25
786.025	317.25
786.283	319.25
786.541	317.25
786.798	310.25
787.056	313.25
787.314	310.25
787.572	324.25
787.83	312.25
788.087	319.25
788.345	320.25
788.602	323.25
788.86	311.25
789.117	321.25
789.375	308.25
789.632	319.25
789.89	326.25
790.147	349.25
790.404	344.25
790.661	335.25
790.919	358.25
791.176	352.25
791.433	353.25
791.69	377.25
791.947	365.25
792.204	362.25
792.461	401.25
792.718	389.25
792.974	402.25
793.231	420.25
793.488	456.25
793.745	452.25
794.001	471.25
794.258	511.25
794.514	518.25
794.771	537.25
795.027	566.25
795.284	571.25
795.54	638.25
795.797	658.25
796.053	739.25
796.309	798.25
796.565	851.25
796.822	956.25
797.078	1101.25
797.334	1263.25
797.59	1533.25
797.846	1919.25
798.102	2512.25
798.358	3433.25
798.614	4835.25
798.869	7117.25
799.125	10496.25
799.381	15312.25
799.637	21544.25
799.892	29097.25
800.148	37179.25
800.403	45260.25
800.659	52278.25
800.914	57877.25
801.17	61732.25
801.425	64282.25
801.68	66192.25
801.936	67895.25
802.191	69163.25
802.446	70718.25
802.701	72066.25
802.957	73501.25
803.212	74886.25
803.467	76463.25
803.722	77712.25
803.977	79156.25
804.232	80537.25
804.486	82005.25
804.741	83391.25
804.996	84906.25
805.251	86204.25
805.505	87499.25
805.76	88878.25
806.015	90133.25
806.269	91063.25
806.524	92312.25
806.778	93125.25
807.033	93652.25
807.287	94665.25
807.541	95725.25
807.796	96974.25
808.05	98070.25
808.304	98999.25
808.558	99499.25
808.812	100059.25
809.066	100948.25
809.32	101569.25
809.574	102151.25
809.828	102673.25
810.082	103342.25
810.336	104094.25
810.59	104802.25
810.844	106161.25
811.097	107345.25
811.351	108678.25
811.605	110329.25
811.858	111869.25
812.112	113791.25
812.365	115368.25
812.619	117039.25
812.872	118472.25
813.126	119962.25
813.379	121606.25
813.632	123022.25
813.885	124285.25
814.139	125805.25
814.392	128022.25
814.645	129707.25
814.898	131606.25
815.151	134118.25
815.404	136648.25
815.657	138546.25
815.91	140663.25
816.163	142260.25
816.416	143877.25
816.668	144492.25
816.921	145526.25
817.174	145612.25
817.426	145728.25
817.679	145595.25
817.931	145827.25
818.184	145361.25
818.436	145222.25
818.689	145293.25
818.941	145355.25
819.194	145810.25
819.446	146375.25
819.698	146790.25
819.95	147253.25
820.202	147687.25
820.455	148599.25
820.707	148534.25
820.959	148681.25
821.211	148657.25
821.462	148445.25
821.714	148033.25
821.966	147535.25
822.218	146591.25
822.47	145927.25
822.722	145360.25
822.973	144842.25
823.225	144470.25
823.476	144276.25
823.728	143713.25
823.979	143990.25
824.231	143770.25
824.482	144204.25
824.734	144016.25
824.985	143768.25
825.236	143373.25
825.487	143213.25
825.739	142712.25
825.99	142149.25
826.241	141744.25
826.492	140554.25
826.743	140336.25
826.994	139469.25
827.245	138861.25
827.496	138562.25
827.747	138214.25
827.997	138311.25
828.248	138297.25
828.499	138494.25
828.75	138500.25
829	138115.25
829.251	138186.25
829.501	138112.25
829.752	137630.25
830.002	136664.25
830.253	135798.25
830.503	135007.25
830.753	134199.25
831.004	133315.25
831.254	132488.25
831.504	132240.25
831.754	131948.25
832.004	131716.25
832.254	131744.25
832.504	131813.25
832.754	131767.25
833.004	131581.25
833.254	130894.25
833.504	130661.25
833.754	130827.25
834.003	130242.25
834.253	129629.25
834.503	129001.25
834.752	127937.25
835.002	127270.25
835.252	126617.25
835.501	126157.25
835.75	125331.25
836	125161.25
836.249	124994.25
836.499	124672.25
836.748	125131.25
836.997	124781.25
837.246	124918.25
837.495	125311.25
837.744	125399.25
837.993	125916.25
838.242	125644.25
838.491	125565.25
838.74	124799.25
838.989	123201.25
839.238	122466.25
839.487	121540.25
839.736	120869.25
839.984	120228.25
840.233	119572.25
840.482	118706.25
840.73	118298.25
840.979	117833.25
841.227	117681.25
841.476	117285.25
841.724	117079.25
841.972	116827.25
842.221	116106.25
842.469	115736.25
842.717	115452.25
842.965	114840.25
843.213	114511.25
843.461	114110.25
843.71	113694.25
843.958	113331.25
844.205	112736.25
844.453	112752.25
844.701	112461.25
844.949	112474.25
845.197	112184.25
845.445	112102.25
845.692	112402.25
845.94	112344.25
846.188	112095.25
846.435	112043.25
846.683	111672.25
846.93	111298.25
847.178	110674.25
847.425	109748.25
847.672	109019.25
847.92	108127.25
848.167	106865.25
848.414	106048.25
848.661	105265.25
848.908	104460.25
849.155	104186.25
849.402	104163.25
849.649	104049.25
849.896	104364.25
850.143	104815.25
850.39	105315.25
850.637	105008.25
850.884	105214.25
851.131	104865.25
851.377	104746.25
851.624	104411.25
851.87	104087.25
852.117	103297.25
852.364	102781.25
852.61	102414.25
852.856	102089.25
853.103	101579.25
853.349	101236.25
853.595	100499.25
853.842	100055.25
854.088	99777.25
854.334	100031.25
854.58	99757.25
854.826	99306.25
855.072	98682.25
855.318	98114.25
855.564	97194.25
855.81	96119.25
856.056	95298.25
856.302	94299.25
856.548	93780.25
856.793	93587.25
857.039	92945.25
857.285	92710.25
857.53	92581.25
857.776	92740.25
858.021	92734.25
858.267	93071.25
858.512	93329.25
858.758	93202.25
859.003	93541.25
859.248	93327.25
859.493	93523.25
859.739	93214.25
859.984	92686.25
860.229	92226.25
860.474	91659.25
860.719	91351.25
860.964	90809.25
861.209	89968.25
861.454	89251.25
861.699	89050.25
861.943	88407.25
862.188	88528.25
862.433	87929.25
862.678	87352.25
862.922	87202.25
863.167	87069.25
863.411	87010.25
863.656	86598.25
863.9	86575.25
864.145	86066.25
864.389	85670.25
864.634	85083.25
864.878	84817.25
865.122	84609.25
865.366	84616.25
865.61	84290.25
865.855	84033.25
866.099	83919.25
866.343	83768.25
866.587	83183.25
866.831	83237.25
867.074	83219.25
867.318	83188.25
867.562	83080.25
867.806	82854.25
868.05	82997.25
868.293	82570.25
868.537	82411.25
868.78	82265.25
869.024	81885.25
869.267	81081.25
869.511	80345.25
869.754	79934.25
869.998	79045.25
870.241	78606.25
870.484	77829.25
870.728	77246.25
870.971	76961.25
871.214	76717.25
871.457	76556.25
871.7	76371.25
871.943	76339.25
872.186	76340.25
872.429	76325.25
872.672	76535.25
872.915	76281.25
873.158	76221.25
873.4	76167.25
873.643	75945.25
873.886	75660.25
874.128	75255.25
874.371	75158.25
874.613	74777.25
874.856	74817.25
875.098	74383.25
875.341	74288.25
875.583	73775.25
875.825	73670.25
876.068	73383.25
876.31	72973.25
876.552	72188.25
876.794	71741.25
877.036	71125.25
877.278	70635.25
877.52	70386.25
877.762	70012.25
878.004	69645.25
878.246	69521.25
878.488	69421.25
878.73	69185.25
878.972	69238.25
879.213	69067.25
879.455	69147.25
879.697	68821.25
879.938	68494.25
880.18	68302.25
880.421	68054.25
880.663	67975.25
880.904	67838.25
881.145	68035.25
881.387	68071.25
881.628	67784.25
881.869	67580.25
882.11	67445.25
882.352	67255.25
882.593	67183.25
882.834	67068.25
883.075	66757.25
883.316	66630.25
883.557	66035.25
883.797	65795.25
884.038	65313.25
884.279	64624.25
884.52	63874.25
884.761	63264.25
885.001	62754.25
885.242	62416.25
885.482	61947.25
885.723	61546.25
885.963	61314.25
886.204	61153.25
886.444	60739.25
886.685	60729.25
886.925	60373.25
887.165	60104.25
887.405	59754.25
887.646	59756.25
887.886	59544.25
888.126	59237.25
888.366	59474.25
888.606	59334.25
888.846	59457.25
889.086	59635.25
889.326	59566.25
889.565	59561.25
889.805	59440.25
890.045	59358.25
890.285	59030.25
890.524	58896.25
890.764	58533.25
891.003	58080.25
891.243	57698.25
891.482	57146.25
891.722	56666.25
891.961	56130.25
892.201	55935.25
892.44	55452.25
892.679	55251.25
892.918	55277.25
893.158	54934.25
893.397	54794.25
893.636	54508.25
893.875	54487.25
894.114	53870.25
894.353	53854.25
894.592	53809.25
894.831	53506.25
895.069	53056.25
895.308	52800.25
895.547	52385.25
895.786	52147.25
896.024	52027.25
896.263	51803.25
896.501	51832.25
896.74	51681.25
896.978	51587.25
897.217	51590.25
897.455	51516.25
897.694	51211.25
897.932	51063.25
898.17	50988.25
898.408	50781.25
898.646	50492.25
898.885	50216.25
899.123	49937.25
899.361	49746.25
899.599	49291.25
899.837	49022.25
900.075	48835.25
900.312	48519.25
900.55	48059.25
900.788	47565.25
901.026	47136.25
901.263	46686.25
901.501	46402.25
901.739	46039.25
901.976	45935.25
902.214	45798.25
902.451	45458.25
902.689	45368.25
902.926	45555.25
903.163	45286.25
903.401	45445.25
903.638	45176.25
903.875	45162.25
904.112	45142.25
904.349	45145.25
904.586	45080.25
904.823	44855.25
905.06	44464.25
905.297	44246.25
905.534	43672.25
905.771	43445.25
906.008	43055.25
906.245	42963.25
906.481	42614.25
906.718	42381.25
906.955	42226.25
907.191	42082.25
907.428	41818.25
907.664	41691.25
907.901	41700.25
908.137	41311.25
908.374	41244.25
908.61	40998.25
908.846	40674.25
909.083	40546.25
909.319	40204.25
909.555	40027.25
909.791	39615.25
910.027	39342.25
910.263	39053.25
910.499	38748.25
910.735	38452.25
910.971	38251.25
911.207	38090.25
911.443	37872.25
911.678	37584.25
911.914	37412.25
912.15	37459.25
912.385	37364.25
912.621	37193.25
912.857	37251.25
913.092	37190.25
913.328	37055.25
913.563	37090.25
913.798	36946.25
914.034	36928.25
914.269	36829.25
914.504	36722.25
914.739	36394.25
914.975	36363.25
915.21	36103.25
915.445	35827.25
915.68	35547.25
915.915	35263.25
916.15	34755.25
916.384	34371.25
916.619	34099.25
916.854	33794.25
917.089	33641.25
917.324	33354.25
917.558	33079.25
917.793	32872.25
918.028	32698.25
918.262	32756.25
918.497	32713.25
918.731	32677.25
918.965	32528.25
919.2	32512.25
919.434	32518.25
919.668	32446.25
919.903	32333.25
920.137	32199.25
920.371	32010.25
920.605	31696.25
920.839	31532.25
921.073	31135.25
921.307	31113.25
921.541	30872.25
921.775	30846.25
922.009	30672.25
922.243	30488.25
922.476	30445.25
922.71	30336.25
922.944	30382.25
923.177	30367.25
923.411	30263.25
923.644	30320.25
923.878	30221.25
924.111	30087.25
924.345	29941.25
924.578	29854.25
924.811	29696.25
925.045	29536.25
925.278	29177.25
925.511	29097.25
925.744	28832.25
925.977	28448.25
926.21	28441.25
926.443	28180.25
926.676	27774.25
926.909	27660.25
927.142	27496.25
927.375	27278.25
927.608	27175.25
927.841	27038.25
928.073	26915.25
928.306	26828.25
928.539	26837.25
928.771	26805.25
929.004	26812.25
929.236	26809.25
929.469	26809.25
929.701	26697.25
929.933	27015.25
930.166	26827.25
930.398	26775.25
930.63	26723.25
930.862	26654.25
931.094	26418.25
931.327	26390.25
931.559	26107.25
931.791	25973.25
932.023	25807.25
932.255	25633.25
932.486	25325.25
932.718	25275.25
932.95	25078.25
933.182	24916.25
933.413	24879.25
933.645	24666.25
933.877	24713.25
934.108	24469.25
934.34	24466.25
934.571	24299.25
934.803	24193.25
935.034	24158.25
935.265	24073.25
935.497	23892.25
935.728	23836.25
935.959	23796.25
936.19	23683.25
936.422	23625.25
936.653	23568.25
936.884	23356.25
937.115	23284.25
937.346	23064.25
937.577	22928.25
937.807	22853.25
938.038	22697.25
938.269	22690.25
938.5	22689.25
938.73	22552.25
938.961	22558.25
939.192	22775.25
939.422	22510.25
939.653	22554.25
939.883	22545.25
940.114	22291.25
940.344	22434.25
940.574	22193.25
940.805	22101.25
941.035	22037.25
941.265	21890.25
941.495	21834.25
941.726	21594.25
941.956	21404.25
942.186	21320.25
942.416	21155.25
942.646	20968.25
942.876	20809.25
943.105	20787.25
943.335	20536.25
943.565	20385.25
943.795	20364.25
944.024	20080.25
944.254	19988.25
944.484	19861.25
944.713	19812.25
944.943	19809.25
945.172	19664.25
945.402	19711.25
945.631	19565.25
945.86	19628.25
946.09	19551.25
946.319	19562.25
946.548	19545.25
946.777	19597.25
947.006	19488.25
947.235	19368.25
947.465	19345.25
947.694	19206.25
947.922	19045.25
948.151	18983.25
948.38	18795.25
948.609	18691.25
948.838	18609.25
949.067	18505.25
949.295	18374.25
949.524	18281.25
949.752	18083.25
949.981	18060.25
950.21	17931.25
950.438	17875.25
950.666	17777.25
950.895	17634.25
951.123	17608.25
951.351	17427.25
951.58	17387.25
951.808	17217.25
952.036	17257.25
952.264	17094.25
952.492	17148.25
952.72	16963.25
952.948	16933.25
953.176	16761.25
953.404	16664.25
953.632	16485.25
953.86	16454.25
954.088	16195.25
954.315	16193.25
954.543	16033.25
954.771	16060.25
954.998	15909.25
955.226	15914.25
955.453	15861.25
955.681	15786.25
955.908	15761.25
956.135	15680.25
956.363	15746.25
956.59	15654.25
956.817	15563.25
957.045	15592.25
957.272	15481.25
957.499	15370.25
957.726	15422.25
957.953	15336.25
958.18	15150.25
958.407	15176.25
958.634	15167.25
958.861	14908.25
959.087	14767.25
959.314	14784.25
959.541	14735.25
959.767	14576.25
959.994	14511.25
960.221	14460.25
960.447	14143.25
960.674	14125.25
960.9	14028.25
961.127	13957.25
961.353	13843.25
961.579	13713.25
961.806	13638.25
962.032	13713.25
962.258	13481.25
962.484	13482.25
962.71	13441.25
962.936	13360.25
963.162	13319.25
963.388	13298.25
963.614	13260.25
963.84	13329.25
964.066	13216.25
964.292	13248.25
964.518	13147.25
964.743	13042.25
964.969	12967.25
965.195	12993.25
965.42	12896.25
965.646	12854.25
965.871	12754.25
966.097	12650.25
966.322	12676.25
966.547	12561.25
966.773	12481.25
966.998	12436.25
967.223	12341.25
967.448	12412.25
967.674	12249.25
967.899	12194.25
968.124	12105.25
968.349	12102.25
968.574	12022.25
968.799	11952.25
969.024	11787.25
969.248	11735.25
969.473	11692.25
969.698	11538.25
969.923	11534.25
970.147	11497.25
970.372	11441.25
970.596	11441.25
970.821	11281.25
971.046	11223.25
971.27	11204.25
971.494	11071.25
971.719	11036.25
971.943	10968.25
972.167	10909.25
972.392	10752.25
972.616	10690.25
972.84	10658.25
973.064	10559.25
973.288	10609.25
973.512	10505.25
973.736	10454.25
973.96	10488.25
974.184	10450.25
974.408	10381.25
974.631	10351.25
974.855	10321.25
975.079	10287.25
975.303	10244.25
975.526	10147.25
975.75	10197.25
975.973	10064.25
976.197	10032.25
976.42	10017.25
976.644	9940.25
976.867	9926.25
977.09	9810.25
977.313	9690.25
977.537	9670.25
977.76	9550.25
977.983	9504.25
978.206	9453.25
978.429	9353.25
978.652	9287.25
978.875	9208.25
979.098	9298.25
979.321	9110.25
979.544	9080.25
979.767	9039.25
979.989	8953.25
980.212	8902.25
980.435	8839.25
980.657	8785.25
980.88	8794.25
981.102	8679.25
981.325	8684.25
981.547	8589.25
981.77	8548.25
981.992	8534.25
982.214	8458.25
982.437	8399.25
982.659	8399.25
982.881	8356.25
983.103	8349.25
983.325	8295.25
983.547	8279.25
983.769	8198.25
983.991	8157.25
984.213	8120.25
984.435	8071.25
984.657	8086.25
984.879	8009.25
985.1	8001.25
985.322	7963.25
985.544	7882.25
985.765	7870.25
985.987	7805.25
986.208	7753.25
986.43	7659.25
986.651	7676.25
986.873	7583.25
987.094	7531.25
987.315	7525.25
987.536	7449.25
987.758	7433.25
987.979	7384.25
988.2	7325.25
988.421	7263.25
988.642	7167.25
988.863	7123.25
989.084	7133.25
989.305	7086.25
989.526	6979.25
989.747	6963.25
989.967	6914.25
990.188	6859.25
990.409	6765.25
990.629	6797.25
990.85	6746.25
991.071	6660.25
991.291	6612.25
991.512	6555.25
991.732	6571.25
991.952	6562.25
992.173	6486.25
992.393	6505.25
992.613	6474.25
992.834	6447.25
993.054	6436.25
993.274	6382.25
993.494	6372.25
993.714	6333.25
993.934	6326.25
994.154	6246.25
994.374	6308.25
994.594	6199.25
994.813	6201.25
995.033	6133.25
995.253	6153.25
995.473	6107.25
995.692	6037.25
995.912	5989.25
996.131	5942.25
996.351	5916.25
996.57	5829.25
996.79	5820.25
997.009	5778.25
997.228	5722.25
997.448	5661.25
997.667	5593.25
997.886	5532.25
998.105	5500.25
998.325	5468.25
998.544	5395.25
998.763	5369.25
998.982	5334.25
999.201	5329.25
999.419	5270.25
999.638	5231.25
999.857	5213.25
1000.076	5208.25
1000.295	5130.25
1000.513	5189.25
1000.732	5112.25
1000.95	5064.25
1001.169	5059.25
1001.388	4999.25
1001.606	4986.25
1001.824	4950.25
1002.043	4934.25
1002.261	4953.25
1002.479	4929.25
1002.698	4882.25
1002.916	4885.25
1003.134	4903.25
1003.352	4773.25
1003.57	4770.25
1003.788	4737.25
1004.006	4735.25
1004.224	4673.25
1004.442	4696.25
1004.66	4643.25
1004.878	4662.25
1005.095	4637.25
1005.313	4680.25
1005.531	4592.25
1005.748	4565.25
1005.966	4647.25
1006.184	4551.25
1006.401	4479.25
1006.618	4433.25
1006.836	4411.25
1007.053	4398.25
1007.271	4413.25
1007.488	4368.25
1007.705	4354.25
1007.922	4363.25
1008.139	4309.25
1008.357	4345.25
1008.574	4323.25
1008.791	4357.25
1009.008	4376.25
1009.225	4363.25
1009.441	4391.25
1009.658	4365.25
1009.875	4371.25
1010.092	4352.25
1010.309	4263.25
1010.525	4251.25
1010.742	4251.25
1010.958	4177.25
1011.175	4169.25
1011.391	4136.25
1011.608	4099.25
1011.824	4030.25
1012.041	3976.25
1012.257	3965.25
1012.473	3968.25
1012.689	3922.25
1012.906	3854.25
1013.122	3850.25
1013.338	3854.25
1013.554	3827.25
1013.77	3790.25
1013.986	3839.25
1014.202	3914.25
1014.418	3953.25
1014.634	3957.25
1014.849	3955.25
1015.065	3983.25
1015.281	4010.25
1015.496	3964.25
1015.712	3896.25
1015.928	3877.25
1016.143	3781.25
1016.359	3733.25
1016.574	3693.25
1016.79	3659.25
1017.005	3579.25
1017.22	3468.25
1017.435	3453.25
1017.651	3398.25
1017.866	3346.25
1018.081	3277.25
1018.296	3226.25
1018.511	3169.25
1018.726	3167.25
1018.941	3096.25
1019.156	3092.25
1019.371	3073.25
1019.586	3078.25
1019.801	3055.25
1020.015	3030.25
1020.23	3003.25
1020.445	2969.25
1020.659	2934.25
1020.874	2925.25
1021.088	2892.25
1021.303	2809.25
1021.517	2788.25
1021.732	2774.25
1021.946	2736.25
1022.16	2768.25
1022.375	2661.25
1022.589	2627.25
1022.803	2587.25
1023.017	2522.25
1023.231	2482.25
1023.445	2470.25
1023.659	2402.25
1023.873	2356.25
1024.087	2286.25
1024.301	2289.25
1024.515	2239.25
1024.729	2195.25
1024.942	2134.25
1025.156	2154.25
1025.37	2063.25
1025.583	2020.25
1025.797	1998.25
1026.01	1992.25
1026.224	1935.25
1026.437	1867.25
1026.651	1833.25
1026.864	1769.25
1027.077	1727.25
1027.291	1692.25
1027.504	1671.25
1027.717	1615.25
1027.93	1566.25
1028.143	1524.25
1028.356	1462.25
1028.569	1367.25
1028.782	1306.25
1028.995	-4.75
1029.208	-0.75
1029.421	-0.75
1029.634	-3.75
