Data from QEP037381__83__14-56-22-276.txt Node

Date: Mon Mar 14 14:56:22 EDT 2022
User: dcclab
Spectrometer: QEP03738
Trigger mode: 4
Integration Time (sec): 2.500000E0
Scans to average: 1
Electric dark correction enabled: true
Nonlinearity correction enabled: false
Boxcar width: 0
XAxis mode: Wavelengths
Number of Pixels in Spectrum: 1044
>>>>>Begin Spectral Data<<<<<
783.959	13
784.218	-1
784.476	-1
784.734	-3
784.992	349
785.251	339
785.509	331
785.767	331
786.025	329
786.283	334
786.541	330
786.798	323
787.056	324
787.314	295
787.572	331
787.83	312
788.087	331
788.345	337
788.602	330
788.86	333
789.117	334
789.375	332
789.632	349
789.89	329
790.147	356
790.404	359
790.661	354
790.919	381
791.176	370
791.433	371
791.69	385
791.947	384
792.204	373
792.461	410
792.718	407
792.974	429
793.231	428
793.488	505
793.745	473
794.001	493
794.258	535
794.514	535
794.771	569
795.027	597
795.284	619
795.54	669
795.797	692
796.053	771
796.309	837
796.565	922
796.822	1025
797.078	1155
797.334	1344
797.59	1598
797.846	1980
798.102	2628
798.358	3575
798.614	5169
798.869	7495
799.125	11104
799.381	16139
799.637	22790
799.892	30573
800.148	39283
800.403	47825
800.659	55246
800.914	61134
801.17	65135
801.425	67873
801.68	69924
801.936	71606
802.191	72970
802.446	74656
802.701	76086
802.957	77557
803.212	79226
803.467	80524
803.722	81915
803.977	83547
804.232	84850
804.486	86440
804.741	87819
804.996	89593
805.251	91105
805.505	92463
805.76	93536
806.015	95084
806.269	96003
806.524	97172
806.778	97927
807.033	98823
807.287	99904
807.541	101079
807.796	102091
808.05	103225
808.304	104373
808.558	104842
808.812	105477
809.066	106173
809.32	107114
809.574	107643
809.828	108126
810.082	108660
810.336	109609
810.59	110627
810.844	111526
811.097	112784
811.351	114443
811.605	116025
811.858	117898
812.112	119969
812.365	121538
812.619	123076
812.872	124909
813.126	126126
813.379	127917
813.632	129164
813.885	130634
814.139	132816
814.392	134531
814.645	136585
814.898	138934
815.151	141168
815.404	143512
815.657	146195
815.91	148022
816.163	149505
816.416	151227
816.668	152087
816.921	152888
817.174	153233
817.426	153324
817.679	152968
817.931	152944
818.184	152676
818.436	152850
818.689	152809
818.941	152850
819.194	153210
819.446	153727
819.698	154055
819.95	154362
820.202	155358
820.455	155923
820.707	156052
820.959	156104
821.211	156135
821.462	155807
821.714	155269
821.966	154744
822.218	154345
822.47	153254
822.722	152617
822.973	151901
823.225	151507
823.476	151428
823.728	151025
823.979	150925
824.231	150997
824.482	151054
824.734	151084
824.985	150979
825.236	150713
825.487	150376
825.739	149904
825.99	149116
826.241	148706
826.492	147958
826.743	147117
826.994	146402
827.245	145807
827.496	145084
827.747	145073
827.997	144815
828.248	144859
828.499	145053
828.75	144988
829	144843
829.251	144653
829.501	144910
829.752	144157
830.002	143036
830.253	142098
830.503	141381
830.753	140413
831.004	139289
831.254	138976
831.504	138176
831.754	138149
832.004	138012
832.254	137937
832.504	137867
832.754	137773
833.004	137549
833.254	137048
833.504	137203
833.754	136706
834.003	136290
834.253	135739
834.503	134843
834.752	133956
835.002	132915
835.252	132626
835.501	131871
835.75	131311
836	130811
836.249	130666
836.499	130684
836.748	130707
836.997	130470
837.246	130574
837.495	130641
837.744	131140
837.993	131653
838.242	131648
838.491	131477
838.74	130373
838.989	129007
839.238	127926
839.487	127224
839.736	126319
839.984	125745
840.233	124740
840.482	124296
840.73	123881
840.979	123333
841.227	122900
841.476	122457
841.724	122232
841.972	121897
842.221	121561
842.469	120920
842.717	120570
842.965	120120
843.213	119512
843.461	119437
843.71	118715
843.958	118339
844.205	118214
844.453	117818
844.701	117636
844.949	117334
845.197	117088
845.445	117018
845.692	117145
845.94	117611
846.188	117267
846.435	117141
846.683	116689
846.93	116126
847.178	115554
847.425	114491
847.672	113893
847.92	113007
848.167	111866
848.414	110809
848.661	109879
848.908	109083
849.155	108749
849.402	108570
849.649	108689
849.896	108802
850.143	109403
850.39	109529
850.637	109723
850.884	109644
851.131	109298
851.377	109314
851.624	108812
851.87	108023
852.117	107653
852.364	107294
852.61	107068
852.856	106302
853.103	105798
853.349	105245
853.595	104605
853.842	104038
854.088	103938
854.334	104178
854.58	104043
854.826	103482
855.072	102855
855.318	102323
855.564	101169
855.81	100276
856.056	99228
856.302	98342
856.548	97805
856.793	97400
857.039	96985
857.285	96643
857.53	96430
857.776	96736
858.021	97030
858.267	97135
858.512	97396
858.758	97322
859.003	97452
859.248	97509
859.493	97205
859.739	97014
859.984	96822
860.229	96247
860.474	95638
860.719	95244
860.964	94289
861.209	93740
861.454	93398
861.699	92670
861.943	91781
862.188	91837
862.433	91820
862.678	90984
862.922	90720
863.167	90714
863.411	90221
863.656	90173
863.9	89813
864.145	89519
864.389	89138
864.634	88693
864.878	88272
865.122	88048
865.366	87902
865.61	87695
865.855	87418
866.099	87099
866.343	87309
866.587	86753
866.831	86901
867.074	86567
867.318	86729
867.562	86368
867.806	86463
868.05	86021
868.293	86109
868.537	85881
868.78	85631
869.024	85179
869.267	84493
869.511	83727
869.754	83209
869.998	82341
870.241	81537
870.484	80924
870.728	80521
870.971	80141
871.214	79900
871.457	79501
871.7	79482
871.943	79434
872.186	79425
872.429	79431
872.672	79627
872.915	79448
873.158	79151
873.4	79201
873.643	78817
873.886	78592
874.128	78270
874.371	78038
874.613	77940
874.856	77428
875.098	77488
875.341	77062
875.583	76910
875.825	76619
876.068	76278
876.31	75857
876.552	75167
876.794	74458
877.036	73952
877.278	73430
877.52	73137
877.762	72663
878.004	72457
878.246	72067
878.488	71958
878.73	72162
878.972	71866
879.213	71897
879.455	71755
879.697	71669
879.938	71388
880.18	71198
880.421	70558
880.663	70530
880.904	70456
881.145	70378
881.387	70392
881.628	70457
881.869	70085
882.11	69653
882.352	69595
882.593	69496
882.834	69502
883.075	69261
883.316	69002
883.557	68467
883.797	68406
884.038	67832
884.279	67137
884.52	66376
884.761	65664
885.001	65032
885.242	64598
885.482	64463
885.723	63894
885.963	63588
886.204	63464
886.444	63251
886.685	62949
886.925	62580
887.165	62311
887.405	62156
887.646	61974
887.886	61701
888.126	61380
888.366	61513
888.606	61599
888.846	61735
889.086	61816
889.326	61718
889.565	61740
889.805	61892
890.045	61668
890.285	61291
890.524	61053
890.764	60760
891.003	60482
891.243	59660
891.482	59172
891.722	58532
891.961	58148
892.201	57858
892.44	57823
892.679	57284
892.918	57161
893.158	57026
893.397	56921
893.636	56719
893.875	56555
894.114	56177
894.353	55994
894.592	55664
894.831	55440
895.069	55099
895.308	54796
895.547	54515
895.786	54123
896.024	54207
896.263	53782
896.501	53840
896.74	53776
896.978	53490
897.217	53516
897.455	53305
897.694	53377
897.932	52975
898.17	52787
898.408	52707
898.646	52425
898.885	51984
899.123	51642
899.361	51715
899.599	51151
899.837	50993
900.075	50700
900.312	50353
900.55	49821
900.788	49349
901.026	48949
901.263	48401
901.501	48191
901.739	47917
901.976	47707
902.214	47409
902.451	47212
902.689	47124
902.926	46977
903.163	46848
903.401	46964
903.638	46802
903.875	46896
904.112	46782
904.349	46633
904.586	46685
904.823	46417
905.06	46185
905.297	45732
905.534	45418
905.771	45143
906.008	44660
906.245	44426
906.481	44163
906.718	43969
906.955	43756
907.191	43580
907.428	43417
907.664	43233
907.901	43166
908.137	42789
908.374	42602
908.61	42385
908.846	42164
909.083	41951
909.319	41684
909.555	41397
909.791	41212
910.027	40785
910.263	40349
910.499	40145
910.735	39780
910.971	39616
911.207	39308
911.443	39203
911.678	38985
911.914	38785
912.15	38803
912.385	38675
912.621	38600
912.857	38607
913.092	38413
913.328	38404
913.563	38313
913.798	38251
914.034	38134
914.269	38204
914.504	38011
914.739	37813
914.975	37576
915.21	37261
915.445	37155
915.68	36858
915.915	36513
916.15	36067
916.384	35653
916.619	35219
916.854	35089
917.089	34837
917.324	34519
917.558	34143
917.793	33960
918.028	33890
918.262	33879
918.497	33883
918.731	33790
918.965	33724
919.2	33727
919.434	33658
919.668	33538
919.903	33364
920.137	33328
920.371	33171
920.605	32850
920.839	32596
921.073	32491
921.307	32257
921.541	31940
921.775	31858
922.009	31808
922.243	31663
922.476	31535
922.71	31384
922.944	31428
923.177	31473
923.411	31384
923.644	31365
923.878	31248
924.111	31077
924.345	31003
924.578	30809
924.811	30738
925.045	30448
925.278	30391
925.511	29997
925.744	29822
925.977	29672
926.21	29445
926.443	29128
926.676	28802
926.909	28689
927.142	28544
927.375	28348
927.608	28038
927.841	28119
928.073	27833
928.306	27736
928.539	27862
928.771	27765
929.004	27700
929.236	27764
929.469	27635
929.701	27678
929.933	27801
930.166	27716
930.398	27591
930.63	27595
930.862	27458
931.094	27319
931.327	27212
931.559	27058
931.791	26723
932.023	26691
932.255	26526
932.486	26136
932.718	26049
932.95	25922
933.182	25821
933.413	25672
933.645	25505
933.877	25396
934.108	25362
934.34	25201
934.571	25049
934.803	25013
935.034	24970
935.265	24830
935.497	24700
935.728	24727
935.959	24572
936.19	24532
936.422	24427
936.653	24330
936.884	24119
937.115	24018
937.346	23744
937.577	23694
937.807	23518
938.038	23455
938.269	23471
938.5	23352
938.73	23307
938.961	23374
939.192	23357
939.422	23413
939.653	23228
939.883	23248
940.114	23136
940.344	23049
940.574	23031
940.805	22842
941.035	22754
941.265	22498
941.495	22369
941.726	22231
941.956	22059
942.186	22041
942.416	21720
942.646	21643
942.876	21555
943.105	21298
943.335	21113
943.565	21094
943.795	21021
944.024	20712
944.254	20621
944.484	20540
944.713	20511
944.943	20438
945.172	20275
945.402	20309
945.631	20242
945.86	20122
946.09	20166
946.319	20176
946.548	20152
946.777	20146
947.006	20103
947.235	19883
947.465	19887
947.694	19863
947.922	19718
948.151	19574
948.38	19408
948.609	19288
948.838	19077
949.067	19056
949.295	18894
949.524	18827
949.752	18691
949.981	18683
950.21	18510
950.438	18459
950.666	18451
950.895	18280
951.123	18123
951.351	18027
951.58	17931
951.808	17796
952.036	17753
952.264	17674
952.492	17681
952.72	17562
952.948	17429
953.176	17323
953.404	17217
953.632	17079
953.86	17000
954.088	16701
954.315	16758
954.543	16556
954.771	16573
954.998	16401
955.226	16351
955.453	16371
955.681	16327
955.908	16308
956.135	16215
956.363	16179
956.59	16108
956.817	16125
957.045	16072
957.272	15995
957.499	15858
957.726	15846
957.953	15855
958.18	15619
958.407	15582
958.634	15535
958.861	15347
959.087	15351
959.314	15170
959.541	15135
959.767	15032
959.994	14914
960.221	14831
960.447	14723
960.674	14548
960.9	14412
961.127	14364
961.353	14228
961.579	14120
961.806	14056
962.032	14016
962.258	13903
962.484	13868
962.71	13910
962.936	13805
963.162	13736
963.388	13608
963.614	13726
963.84	13619
964.066	13629
964.292	13558
964.518	13516
964.743	13393
964.969	13411
965.195	13372
965.42	13226
965.646	13209
965.871	13211
966.097	13039
966.322	13000
966.547	12885
966.773	12927
966.998	12742
967.223	12817
967.448	12627
967.674	12640
967.899	12561
968.124	12411
968.349	12441
968.574	12356
968.799	12360
969.024	12153
969.248	12150
969.473	12024
969.698	11885
969.923	11883
970.147	11879
970.372	11776
970.596	11765
970.821	11654
971.046	11551
971.27	11490
971.494	11406
971.719	11349
971.943	11253
972.167	11099
972.392	11044
972.616	11051
972.84	10949
973.064	10868
973.288	10828
973.512	10831
973.736	10828
973.96	10760
974.184	10676
974.408	10643
974.631	10630
974.855	10562
975.079	10584
975.303	10481
975.526	10428
975.75	10389
975.973	10375
976.197	10356
976.42	10252
976.644	10283
976.867	10159
977.09	10084
977.313	10012
977.537	9916
977.76	9796
977.983	9782
978.206	9735
978.429	9607
978.652	9522
978.875	9499
979.098	9452
979.321	9394
979.544	9267
979.767	9361
979.989	9210
980.212	9086
980.435	9077
980.657	8971
980.88	8970
981.102	8984
981.325	8932
981.547	8883
981.77	8770
981.992	8706
982.214	8735
982.437	8696
982.659	8607
982.881	8597
983.103	8564
983.325	8505
983.547	8479
983.769	8377
983.991	8421
984.213	8405
984.435	8305
984.657	8296
984.879	8272
985.1	8162
985.322	8091
985.544	8073
985.765	8064
985.987	8091
986.208	7993
986.43	7951
986.651	7904
986.873	7850
987.094	7828
987.315	7734
987.536	7636
987.758	7655
987.979	7555
988.2	7512
988.421	7443
988.642	7400
988.863	7294
989.084	7294
989.305	7309
989.526	7150
989.747	7179
989.967	7070
990.188	7014
990.409	7021
990.629	6903
990.85	6929
991.071	6850
991.291	6845
991.512	6715
991.732	6745
991.952	6732
992.173	6680
992.393	6694
992.613	6609
992.834	6642
993.054	6628
993.274	6490
993.494	6482
993.714	6493
993.934	6465
994.154	6433
994.374	6420
994.594	6344
994.813	6290
995.033	6297
995.253	6271
995.473	6247
995.692	6119
995.912	6142
996.131	6090
996.351	6115
996.57	6033
996.79	6012
997.009	5867
997.228	5861
997.448	5735
997.667	5755
997.886	5699
998.105	5638
998.325	5619
998.544	5598
998.763	5476
998.982	5465
999.201	5402
999.419	5440
999.638	5369
999.857	5328
1000.076	5337
1000.295	5193
1000.513	5261
1000.732	5220
1000.95	5206
1001.169	5186
1001.388	5173
1001.606	5141
1001.824	5122
1002.043	5069
1002.261	5111
1002.479	5035
1002.698	5014
1002.916	4968
1003.134	4995
1003.352	4932
1003.57	4891
1003.788	4915
1004.006	4843
1004.224	4835
1004.442	4823
1004.66	4790
1004.878	4722
1005.095	4709
1005.313	4695
1005.531	4625
1005.748	4686
1005.966	4740
1006.184	4635
1006.401	4573
1006.618	4621
1006.836	4548
1007.053	4553
1007.271	4450
1007.488	4460
1007.705	4498
1007.922	4470
1008.139	4402
1008.357	4460
1008.574	4413
1008.791	4399
1009.008	4461
1009.225	4415
1009.441	4481
1009.658	4477
1009.875	4435
1010.092	4452
1010.309	4353
1010.525	4375
1010.742	4279
1010.958	4245
1011.175	4241
1011.391	4203
1011.608	4150
1011.824	4168
1012.041	4096
1012.257	4037
1012.473	4020
1012.689	3963
1012.906	3976
1013.122	3904
1013.338	3942
1013.554	3948
1013.77	3928
1013.986	3899
1014.202	3936
1014.418	3985
1014.634	3999
1014.849	4024
1015.065	4074
1015.281	4006
1015.496	4059
1015.712	4038
1015.928	3938
1016.143	3928
1016.359	3799
1016.574	3726
1016.79	3685
1017.005	3634
1017.22	3557
1017.435	3541
1017.651	3471
1017.866	3385
1018.081	3314
1018.296	3284
1018.511	3282
1018.726	3245
1018.941	3209
1019.156	3189
1019.371	3118
1019.586	3150
1019.801	3127
1020.015	3058
1020.23	3067
1020.445	3024
1020.659	3003
1020.874	2954
1021.088	2901
1021.303	2887
1021.517	2845
1021.732	2824
1021.946	2802
1022.16	2752
1022.375	2702
1022.589	2690
1022.803	2614
1023.017	2566
1023.231	2566
1023.445	2524
1023.659	2447
1023.873	2388
1024.087	2347
1024.301	2337
1024.515	2281
1024.729	2228
1024.942	2195
1025.156	2184
1025.37	2114
1025.583	2101
1025.797	2056
1026.01	2031
1026.224	1970
1026.437	1931
1026.651	1859
1026.864	1816
1027.077	1761
1027.291	1720
1027.504	1673
1027.717	1619
1027.93	1599
1028.143	1561
1028.356	1518
1028.569	1418
1028.782	1357
1028.995	-1
1029.208	-4
1029.421	0
1029.634	-3
