Data from QEP037381__71__14-55-52-275.txt Node

Date: Mon Mar 14 14:55:52 EDT 2022
User: dcclab
Spectrometer: QEP03738
Trigger mode: 4
Integration Time (sec): 2.500000E0
Scans to average: 1
Electric dark correction enabled: true
Nonlinearity correction enabled: false
Boxcar width: 0
XAxis mode: Wavelengths
Number of Pixels in Spectrum: 1044
>>>>>Begin Spectral Data<<<<<
783.959	10.62
784.218	1.62
784.476	-1.38
784.734	-5.38
784.992	341.62
785.251	334.62
785.509	328.62
785.767	321.62
786.025	344.62
786.283	322.62
786.541	323.62
786.798	333.62
787.056	322.62
787.314	311.62
787.572	323.62
787.83	322.62
788.087	326.62
788.345	335.62
788.602	334.62
788.86	321.62
789.117	343.62
789.375	332.62
789.632	335.62
789.89	327.62
790.147	344.62
790.404	346.62
790.661	349.62
790.919	363.62
791.176	358.62
791.433	373.62
791.69	388.62
791.947	377.62
792.204	375.62
792.461	405.62
792.718	411.62
792.974	425.62
793.231	434.62
793.488	459.62
793.745	460.62
794.001	500.62
794.258	508.62
794.514	544.62
794.771	564.62
795.027	607.62
795.284	615.62
795.54	676.62
795.797	696.62
796.053	771.62
796.309	835.62
796.565	896.62
796.822	992.62
797.078	1148.62
797.334	1352.62
797.59	1607.62
797.846	2008.62
798.102	2648.62
798.358	3590.62
798.614	5137.62
798.869	7537.62
799.125	11108.62
799.381	16215.62
799.637	22786.62
799.892	30666.62
800.148	39253.62
800.403	47805.62
800.659	55348.62
800.914	61133.62
801.17	65329.62
801.425	68034.62
801.68	70109.62
801.936	71710.62
802.191	73090.62
802.446	74495.62
802.701	76202.62
802.957	77679.62
803.212	79117.62
803.467	80598.62
803.722	82070.62
803.977	83620.62
804.232	85060.62
804.486	86786.62
804.741	88007.62
804.996	89748.62
805.251	91212.62
805.505	92478.62
805.76	93871.62
806.015	95364.62
806.269	96316.62
806.524	97514.62
806.778	98147.62
807.033	98986.62
807.287	99782.62
807.541	101236.62
807.796	102981.62
808.05	103701.62
808.304	104591.62
808.558	105041.62
808.812	105492.62
809.066	106494.62
809.32	107070.62
809.574	107740.62
809.828	108277.62
810.082	109225.62
810.336	109923.62
810.59	110873.62
810.844	111764.62
811.097	113327.62
811.351	114415.62
811.605	116426.62
811.858	118184.62
812.112	119769.62
812.365	121560.62
812.619	123414.62
812.872	124868.62
813.126	126520.62
813.379	127885.62
813.632	129616.62
813.885	131367.62
814.139	132805.62
814.392	134811.62
814.645	136486.62
814.898	139161.62
815.151	141385.62
815.404	143545.62
815.657	146014.62
815.91	148202.62
816.163	149815.62
816.416	151358.62
816.668	152249.62
816.921	152991.62
817.174	153359.62
817.426	153496.62
817.679	153281.62
817.931	153200.62
818.184	153253.62
818.436	152837.62
818.689	152653.62
818.941	152891.62
819.194	153302.62
819.446	153786.62
819.698	154339.62
819.95	154444.62
820.202	155229.62
820.455	155922.62
820.707	156342.62
820.959	156154.62
821.211	156192.62
821.462	155740.62
821.714	155521.62
821.966	155119.62
822.218	154117.62
822.47	153627.62
822.722	152857.62
822.973	152325.62
823.225	151796.62
823.476	151241.62
823.728	150940.62
823.979	151226.62
824.231	150963.62
824.482	151180.62
824.734	151279.62
824.985	151339.62
825.236	151019.62
825.487	150457.62
825.739	149885.62
825.99	149258.62
826.241	148663.62
826.492	147848.62
826.743	147063.62
826.994	146410.62
827.245	145842.62
827.496	145389.62
827.747	145222.62
827.997	145068.62
828.248	144874.62
828.499	145102.62
828.75	145177.62
829	145318.62
829.251	145158.62
829.501	144779.62
829.752	144172.62
830.002	143290.62
830.253	142184.62
830.503	141569.62
830.753	140858.62
831.004	139755.62
831.254	139126.62
831.504	138646.62
831.754	138074.62
832.004	138059.62
832.254	137967.62
832.504	137987.62
832.754	137806.62
833.004	137974.62
833.254	137525.62
833.504	137059.62
833.754	136559.62
834.003	136484.62
834.253	135795.62
834.503	134944.62
834.752	134205.62
835.002	133017.62
835.252	132594.62
835.501	131853.62
835.75	131481.62
836	131105.62
836.249	130960.62
836.499	130683.62
836.748	130775.62
836.997	130598.62
837.246	130656.62
837.495	130839.62
837.744	131702.62
837.993	131793.62
838.242	131671.62
838.491	131439.62
838.74	130520.62
838.989	129342.62
839.238	128259.62
839.487	127250.62
839.736	126857.62
839.984	125733.62
840.233	125204.62
840.482	124262.62
840.73	124163.62
840.979	123762.62
841.227	123138.62
841.476	122682.62
841.724	122350.62
841.972	121804.62
842.221	121571.62
842.469	121083.62
842.717	120587.62
842.965	120058.62
843.213	119607.62
843.461	119463.62
843.71	118752.62
843.958	118462.62
844.205	118221.62
844.453	117789.62
844.701	117516.62
844.949	117481.62
845.197	117205.62
845.445	117354.62
845.692	117374.62
845.94	117650.62
846.188	117483.62
846.435	117086.62
846.683	116907.62
846.93	116309.62
847.178	115518.62
847.425	114472.62
847.672	113735.62
847.92	112989.62
848.167	111978.62
848.414	111107.62
848.661	109945.62
848.908	108997.62
849.155	108872.62
849.402	108649.62
849.649	108787.62
849.896	108701.62
850.143	109515.62
850.39	110031.62
850.637	109759.62
850.884	109771.62
851.131	109658.62
851.377	109203.62
851.624	108905.62
851.87	108415.62
852.117	107937.62
852.364	107294.62
852.61	106824.62
852.856	106593.62
853.103	105906.62
853.349	105447.62
853.595	104921.62
853.842	104243.62
854.088	103957.62
854.334	104099.62
854.58	104224.62
854.826	103681.62
855.072	103091.62
855.318	102282.62
855.564	101382.62
855.81	100216.62
856.056	99456.62
856.302	98598.62
856.548	97848.62
856.793	97403.62
857.039	97150.62
857.285	96654.62
857.53	96814.62
857.776	96547.62
858.021	96881.62
858.267	97366.62
858.512	97309.62
858.758	97342.62
859.003	97569.62
859.248	97245.62
859.493	97294.62
859.739	96976.62
859.984	96704.62
860.229	96160.62
860.474	95385.62
860.719	95202.62
860.964	94695.62
861.209	93827.62
861.454	93285.62
861.699	92576.62
861.943	92233.62
862.188	92005.62
862.433	91749.62
862.678	91207.62
862.922	90989.62
863.167	90723.62
863.411	90725.62
863.656	90358.62
863.9	89927.62
864.145	89812.62
864.389	89402.62
864.634	88617.62
864.878	88405.62
865.122	88093.62
865.366	88151.62
865.61	87702.62
865.855	87605.62
866.099	87505.62
866.343	87081.62
866.587	86950.62
866.831	86855.62
867.074	86756.62
867.318	86681.62
867.562	86549.62
867.806	86573.62
868.05	86320.62
868.293	86045.62
868.537	85825.62
868.78	85612.62
869.024	85162.62
869.267	84518.62
869.511	83975.62
869.754	83109.62
869.998	82582.62
870.241	81846.62
870.484	81102.62
870.728	80486.62
870.971	80180.62
871.214	79650.62
871.457	79616.62
871.7	79513.62
871.943	79546.62
872.186	79515.62
872.429	79648.62
872.672	79945.62
872.915	79570.62
873.158	79436.62
873.4	79323.62
873.643	78922.62
873.886	78692.62
874.128	78541.62
874.371	78095.62
874.613	77945.62
874.856	77666.62
875.098	77422.62
875.341	77363.62
875.583	77011.62
875.825	76716.62
876.068	76346.62
876.31	75978.62
876.552	75180.62
876.794	74588.62
877.036	74018.62
877.278	73466.62
877.52	73212.62
877.762	72805.62
878.004	72559.62
878.246	72212.62
878.488	72167.62
878.73	71908.62
878.972	71886.62
879.213	71736.62
879.455	71943.62
879.697	71511.62
879.938	71353.62
880.18	71070.62
880.421	70806.62
880.663	70634.62
880.904	70605.62
881.145	70479.62
881.387	70519.62
881.628	70620.62
881.869	70112.62
882.11	69929.62
882.352	69757.62
882.593	69656.62
882.834	69526.62
883.075	69266.62
883.316	69119.62
883.557	68774.62
883.797	68237.62
884.038	67874.62
884.279	67016.62
884.52	66351.62
884.761	65792.62
885.001	65220.62
885.242	64981.62
885.482	64248.62
885.723	64029.62
885.963	63598.62
886.204	63460.62
886.444	63140.62
886.685	62971.62
886.925	62761.62
887.165	62552.62
887.405	62146.62
887.646	61916.62
887.886	61650.62
888.126	61463.62
888.366	61657.62
888.606	61524.62
888.846	61669.62
889.086	61719.62
889.326	61834.62
889.565	61897.62
889.805	61700.62
890.045	61576.62
890.285	61429.62
890.524	61172.62
890.764	60952.62
891.003	60590.62
891.243	59749.62
891.482	59143.62
891.722	58578.62
891.961	58162.62
892.201	58044.62
892.44	57657.62
892.679	57611.62
892.918	57283.62
893.158	57081.62
893.397	56921.62
893.636	56804.62
893.875	56421.62
894.114	56063.62
894.353	55868.62
894.592	55777.62
894.831	55435.62
895.069	55411.62
895.308	54758.62
895.547	54356.62
895.786	54215.62
896.024	54162.62
896.263	53922.62
896.501	53879.62
896.74	53795.62
896.978	53595.62
897.217	53646.62
897.455	53395.62
897.694	53320.62
897.932	53062.62
898.17	53062.62
898.408	52700.62
898.646	52446.62
898.885	52238.62
899.123	51791.62
899.361	51510.62
899.599	51187.62
899.837	50873.62
900.075	50826.62
900.312	50243.62
900.55	49851.62
900.788	49457.62
901.026	48952.62
901.263	48553.62
901.501	48310.62
901.739	47914.62
901.976	47539.62
902.214	47530.62
902.451	47263.62
902.689	47195.62
902.926	47082.62
903.163	46986.62
903.401	47008.62
903.638	46876.62
903.875	46824.62
904.112	46871.62
904.349	46887.62
904.586	46672.62
904.823	46569.62
905.06	45936.62
905.297	45934.62
905.534	45346.62
905.771	44968.62
906.008	44799.62
906.245	44461.62
906.481	44260.62
906.718	43893.62
906.955	43803.62
907.191	43849.62
907.428	43495.62
907.664	43214.62
907.901	43139.62
908.137	42808.62
908.374	42661.62
908.61	42426.62
908.846	42134.62
909.083	41918.62
909.319	41732.62
909.555	41547.62
909.791	41292.62
910.027	40697.62
910.263	40421.62
910.499	40239.62
910.735	39961.62
910.971	39548.62
911.207	39293.62
911.443	39207.62
911.678	39099.62
911.914	38783.62
912.15	38850.62
912.385	38748.62
912.621	38768.62
912.857	38737.62
913.092	38607.62
913.328	38366.62
913.563	38357.62
913.798	38264.62
914.034	38266.62
914.269	38134.62
914.504	38035.62
914.739	37827.62
914.975	37586.62
915.21	37404.62
915.445	37138.62
915.68	36800.62
915.915	36530.62
916.15	36037.62
916.384	35759.62
916.619	35305.62
916.854	35043.62
917.089	34679.62
917.324	34436.62
917.558	34351.62
917.793	34046.62
918.028	33964.62
918.262	33802.62
918.497	33817.62
918.731	33795.62
918.965	33646.62
919.2	33718.62
919.434	33655.62
919.668	33605.62
919.903	33403.62
920.137	33390.62
920.371	33067.62
920.605	32861.62
920.839	32559.62
921.073	32345.62
921.307	32289.62
921.541	32060.62
921.775	31816.62
922.009	31669.62
922.243	31617.62
922.476	31583.62
922.71	31478.62
922.944	31481.62
923.177	31351.62
923.411	31323.62
923.644	31274.62
923.878	31229.62
924.111	31115.62
924.345	30992.62
924.578	30902.62
924.811	30721.62
925.045	30505.62
925.278	30336.62
925.511	30133.62
925.744	29832.62
925.977	29598.62
926.21	29409.62
926.443	29088.62
926.676	28921.62
926.909	28675.62
927.142	28438.62
927.375	28215.62
927.608	28207.62
927.841	28047.62
928.073	27887.62
928.306	27853.62
928.539	27798.62
928.771	27721.62
929.004	27783.62
929.236	27896.62
929.469	27798.62
929.701	27641.62
929.933	27778.62
930.166	27637.62
930.398	27627.62
930.63	27714.62
930.862	27549.62
931.094	27346.62
931.327	27176.62
931.559	27044.62
931.791	26917.62
932.023	26745.62
932.255	26494.62
932.486	26232.62
932.718	26139.62
932.95	25868.62
933.182	25760.62
933.413	25754.62
933.645	25612.62
933.877	25448.62
934.108	25300.62
934.34	25184.62
934.571	25095.62
934.803	25008.62
935.034	24996.62
935.265	24906.62
935.497	24754.62
935.728	24742.62
935.959	24655.62
936.19	24555.62
936.422	24413.62
936.653	24398.62
936.884	24213.62
937.115	23996.62
937.346	23910.62
937.577	23733.62
937.807	23627.62
938.038	23584.62
938.269	23430.62
938.5	23349.62
938.73	23343.62
938.961	23293.62
939.192	23364.62
939.422	23329.62
939.653	23267.62
939.883	23176.62
940.114	23163.62
940.344	23179.62
940.574	23019.62
940.805	22845.62
941.035	22808.62
941.265	22576.62
941.495	22538.62
941.726	22262.62
941.956	22076.62
942.186	22029.62
942.416	21839.62
942.646	21614.62
942.876	21492.62
943.105	21433.62
943.335	21246.62
943.565	21126.62
943.795	20885.62
944.024	20827.62
944.254	20674.62
944.484	20491.62
944.713	20478.62
944.943	20437.62
945.172	20395.62
945.402	20247.62
945.631	20246.62
945.86	20147.62
946.09	20145.62
946.319	20236.62
946.548	20201.62
946.777	20163.62
947.006	20063.62
947.235	20031.62
947.465	19986.62
947.694	19873.62
947.922	19673.62
948.151	19574.62
948.38	19450.62
948.609	19329.62
948.838	19187.62
949.067	19098.62
949.295	18992.62
949.524	18885.62
949.752	18764.62
949.981	18710.62
950.21	18494.62
950.438	18405.62
950.666	18366.62
950.895	18191.62
951.123	18081.62
951.351	18039.62
951.58	17893.62
951.808	17863.62
952.036	17761.62
952.264	17767.62
952.492	17734.62
952.72	17528.62
952.948	17493.62
953.176	17314.62
953.404	17216.62
953.632	17101.62
953.86	16851.62
954.088	16678.62
954.315	16713.62
954.543	16656.62
954.771	16503.62
954.998	16508.62
955.226	16516.62
955.453	16394.62
955.681	16293.62
955.908	16205.62
956.135	16111.62
956.363	16092.62
956.59	16121.62
956.817	16043.62
957.045	16028.62
957.272	16040.62
957.499	15913.62
957.726	15788.62
957.953	15687.62
958.18	15679.62
958.407	15581.62
958.634	15644.62
958.861	15393.62
959.087	15304.62
959.314	15294.62
959.541	15138.62
959.767	15014.62
959.994	14909.62
960.221	14829.62
960.447	14715.62
960.674	14459.62
960.9	14356.62
961.127	14309.62
961.353	14311.62
961.579	14165.62
961.806	14020.62
962.032	13936.62
962.258	13919.62
962.484	13966.62
962.71	13790.62
962.936	13797.62
963.162	13639.62
963.388	13767.62
963.614	13644.62
963.84	13650.62
964.066	13526.62
964.292	13578.62
964.518	13545.62
964.743	13410.62
964.969	13393.62
965.195	13348.62
965.42	13268.62
965.646	13149.62
965.871	13072.62
966.097	13107.62
966.322	12997.62
966.547	12954.62
966.773	12875.62
966.998	12749.62
967.223	12615.62
967.448	12681.62
967.674	12594.62
967.899	12511.62
968.124	12386.62
968.349	12407.62
968.574	12344.62
968.799	12289.62
969.024	12179.62
969.248	12035.62
969.473	12071.62
969.698	12022.62
969.923	11854.62
970.147	11725.62
970.372	11738.62
970.596	11679.62
970.821	11638.62
971.046	11567.62
971.27	11488.62
971.494	11462.62
971.719	11322.62
971.943	11172.62
972.167	11242.62
972.392	11048.62
972.616	10957.62
972.84	10883.62
973.064	10875.62
973.288	10835.62
973.512	10834.62
973.736	10768.62
973.96	10781.62
974.184	10688.62
974.408	10689.62
974.631	10576.62
974.855	10612.62
975.079	10508.62
975.303	10527.62
975.526	10432.62
975.75	10435.62
975.973	10305.62
976.197	10307.62
976.42	10265.62
976.644	10174.62
976.867	10163.62
977.09	10129.62
977.313	10010.62
977.537	9950.62
977.76	9860.62
977.983	9805.62
978.206	9679.62
978.429	9639.62
978.652	9640.62
978.875	9551.62
979.098	9416.62
979.321	9340.62
979.544	9343.62
979.767	9244.62
979.989	9171.62
980.212	9112.62
980.435	9079.62
980.657	8965.62
980.88	8930.62
981.102	8909.62
981.325	8947.62
981.547	8911.62
981.77	8815.62
981.992	8769.62
982.214	8769.62
982.437	8725.62
982.659	8637.62
982.881	8593.62
983.103	8547.62
983.325	8526.62
983.547	8491.62
983.769	8453.62
983.991	8423.62
984.213	8354.62
984.435	8282.62
984.657	8286.62
984.879	8179.62
985.1	8193.62
985.322	8205.62
985.544	8055.62
985.765	8046.62
985.987	8004.62
986.208	7999.62
986.43	7938.62
986.651	7874.62
986.873	7743.62
987.094	7785.62
987.315	7721.62
987.536	7667.62
987.758	7638.62
987.979	7533.62
988.2	7509.62
988.421	7437.62
988.642	7382.62
988.863	7340.62
989.084	7308.62
989.305	7272.62
989.526	7151.62
989.747	7167.62
989.967	7114.62
990.188	7054.62
990.409	7010.62
990.629	6911.62
990.85	6899.62
991.071	6875.62
991.291	6793.62
991.512	6729.62
991.732	6770.62
991.952	6742.62
992.173	6647.62
992.393	6672.62
992.613	6544.62
992.834	6623.62
993.054	6626.62
993.274	6525.62
993.494	6469.62
993.714	6506.62
993.934	6482.62
994.154	6410.62
994.374	6438.62
994.594	6391.62
994.813	6343.62
995.033	6297.62
995.253	6251.62
995.473	6259.62
995.692	6198.62
995.912	6186.62
996.131	6043.62
996.351	6053.62
996.57	5961.62
996.79	5952.62
997.009	5873.62
997.228	5826.62
997.448	5832.62
997.667	5690.62
997.886	5679.62
998.105	5643.62
998.325	5590.62
998.544	5544.62
998.763	5465.62
998.982	5479.62
999.201	5454.62
999.419	5417.62
999.638	5321.62
999.857	5351.62
1000.076	5349.62
1000.295	5300.62
1000.513	5256.62
1000.732	5256.62
1000.95	5193.62
1001.169	5200.62
1001.388	5132.62
1001.606	5106.62
1001.824	5076.62
1002.043	5079.62
1002.261	5056.62
1002.479	5038.62
1002.698	5027.62
1002.916	4993.62
1003.134	4989.62
1003.352	4923.62
1003.57	4891.62
1003.788	4897.62
1004.006	4837.62
1004.224	4824.62
1004.442	4754.62
1004.66	4719.62
1004.878	4748.62
1005.095	4742.62
1005.313	4738.62
1005.531	4642.62
1005.748	4632.62
1005.966	4700.62
1006.184	4597.62
1006.401	4568.62
1006.618	4541.62
1006.836	4516.62
1007.053	4569.62
1007.271	4492.62
1007.488	4471.62
1007.705	4459.62
1007.922	4480.62
1008.139	4388.62
1008.357	4444.62
1008.574	4447.62
1008.791	4426.62
1009.008	4489.62
1009.225	4446.62
1009.441	4460.62
1009.658	4447.62
1009.875	4482.62
1010.092	4450.62
1010.309	4385.62
1010.525	4341.62
1010.742	4270.62
1010.958	4231.62
1011.175	4218.62
1011.391	4190.62
1011.608	4160.62
1011.824	4140.62
1012.041	4067.62
1012.257	4063.62
1012.473	3993.62
1012.689	4010.62
1012.906	3939.62
1013.122	3952.62
1013.338	3892.62
1013.554	3938.62
1013.77	3911.62
1013.986	3897.62
1014.202	3960.62
1014.418	4010.62
1014.634	4041.62
1014.849	4050.62
1015.065	4088.62
1015.281	4046.62
1015.496	4023.62
1015.712	3981.62
1015.928	3984.62
1016.143	3850.62
1016.359	3828.62
1016.574	3745.62
1016.79	3688.62
1017.005	3635.62
1017.22	3559.62
1017.435	3541.62
1017.651	3465.62
1017.866	3371.62
1018.081	3375.62
1018.296	3264.62
1018.511	3232.62
1018.726	3262.62
1018.941	3173.62
1019.156	3152.62
1019.371	3127.62
1019.586	3149.62
1019.801	3116.62
1020.015	3116.62
1020.23	3052.62
1020.445	3025.62
1020.659	3019.62
1020.874	2981.62
1021.088	2925.62
1021.303	2838.62
1021.517	2845.62
1021.732	2791.62
1021.946	2773.62
1022.16	2845.62
1022.375	2710.62
1022.589	2687.62
1022.803	2616.62
1023.017	2585.62
1023.231	2536.62
1023.445	2522.62
1023.659	2449.62
1023.873	2415.62
1024.087	2341.62
1024.301	2295.62
1024.515	2300.62
1024.729	2256.62
1024.942	2167.62
1025.156	2195.62
1025.37	2140.62
1025.583	2094.62
1025.797	2044.62
1026.01	2007.62
1026.224	1961.62
1026.437	1906.62
1026.651	1887.62
1026.864	1804.62
1027.077	1765.62
1027.291	1696.62
1027.504	1678.62
1027.717	1634.62
1027.93	1577.62
1028.143	1540.62
1028.356	1512.62
1028.569	1416.62
1028.782	1336.62
1028.995	0.62
1029.208	-2.38
1029.421	-2.38
1029.634	-1.38
