Data from QEP037381__114__15-05-51-284.txt Node

Date: Mon Mar 14 15:05:51 EDT 2022
User: dcclab
Spectrometer: QEP03738
Trigger mode: 4
Integration Time (sec): 2.500000E0
Scans to average: 1
Electric dark correction enabled: true
Nonlinearity correction enabled: false
Boxcar width: 0
XAxis mode: Wavelengths
Number of Pixels in Spectrum: 1044
>>>>>Begin Spectral Data<<<<<
783.959	11.75
784.218	0.75
784.476	-0.25
784.734	-2.25
784.992	242.75
785.251	233.75
785.509	228.75
785.767	220.75
786.025	209.75
786.283	217.75
786.541	219.75
786.798	214.75
787.056	202.75
787.314	186.75
787.572	205.75
787.83	189.75
788.087	209.75
788.345	203.75
788.602	195.75
788.86	198.75
789.117	199.75
789.375	181.75
789.632	194.75
789.89	180.75
790.147	208.75
790.404	201.75
790.661	202.75
790.919	218.75
791.176	199.75
791.433	210.75
791.69	220.75
791.947	212.75
792.204	192.75
792.461	217.75
792.718	224.75
792.974	223.75
793.231	227.75
793.488	254.75
793.745	240.75
794.001	259.75
794.258	282.75
794.514	260.75
794.771	279.75
795.027	288.75
795.284	290.75
795.54	319.75
795.797	311.75
796.053	359.75
796.309	372.75
796.565	403.75
796.822	437.75
797.078	504.75
797.334	564.75
797.59	648.75
797.846	822.75
798.102	1060.75
798.358	1375.75
798.614	1969.75
798.869	2818.75
799.125	4205.75
799.381	6116.75
799.637	8644.75
799.892	11663.75
800.148	15027.75
800.403	18341.75
800.659	21064.75
800.914	23293.75
801.17	24912.75
801.425	25849.75
801.68	26667.75
801.936	27156.75
802.191	27801.75
802.446	28459.75
802.701	28884.75
802.957	29807.75
803.212	30328.75
803.467	30823.75
803.722	31535.75
803.977	32136.75
804.232	32694.75
804.486	33429.75
804.741	34078.75
804.996	34702.75
805.251	35288.75
805.505	36066.75
805.76	36664.75
806.015	37107.75
806.269	37587.75
806.524	38251.75
806.778	38549.75
807.033	38843.75
807.287	39502.75
807.541	39994.75
807.796	40428.75
808.05	40992.75
808.304	41368.75
808.558	41614.75
808.812	41744.75
809.066	42249.75
809.32	42593.75
809.574	42776.75
809.828	43245.75
810.082	43568.75
810.336	43894.75
810.59	44069.75
810.844	44728.75
811.097	45410.75
811.351	46089.75
811.605	46722.75
811.858	47493.75
812.112	48364.75
812.365	49104.75
812.619	49902.75
812.872	50515.75
813.126	51226.75
813.379	51899.75
813.632	52734.75
813.885	53308.75
814.139	54240.75
814.392	54870.75
814.645	55820.75
814.898	56874.75
815.151	57954.75
815.404	59061.75
815.657	60135.75
815.91	61029.75
816.163	61916.75
816.416	62503.75
816.668	62939.75
816.921	63492.75
817.174	63822.75
817.426	63616.75
817.679	63826.75
817.931	63694.75
818.184	63800.75
818.436	63925.75
818.689	63820.75
818.941	64075.75
819.194	64371.75
819.446	64518.75
819.698	64600.75
819.95	65113.75
820.202	65394.75
820.455	65570.75
820.707	65893.75
820.959	65860.75
821.211	66073.75
821.462	65887.75
821.714	65721.75
821.966	65481.75
822.218	65395.75
822.47	65142.75
822.722	64491.75
822.973	64533.75
823.225	64497.75
823.476	64399.75
823.728	64291.75
823.979	64532.75
824.231	64235.75
824.482	64428.75
824.734	64683.75
824.985	64606.75
825.236	64726.75
825.487	64349.75
825.739	64305.75
825.99	63861.75
826.241	63745.75
826.492	63586.75
826.743	63122.75
826.994	63102.75
827.245	62839.75
827.496	62757.75
827.747	62778.75
827.997	62806.75
828.248	62764.75
828.499	62967.75
828.75	62912.75
829	63008.75
829.251	62958.75
829.501	62994.75
829.752	62622.75
830.002	62428.75
830.253	62017.75
830.503	61830.75
830.753	61431.75
831.004	60981.75
831.254	60781.75
831.504	60745.75
831.754	60489.75
832.004	60660.75
832.254	60375.75
832.504	60486.75
832.754	60666.75
833.004	60734.75
833.254	60477.75
833.504	60457.75
833.754	60221.75
834.003	59903.75
834.253	59866.75
834.503	59465.75
834.752	59319.75
835.002	59009.75
835.252	58624.75
835.501	58483.75
835.75	58201.75
836	58303.75
836.249	58350.75
836.499	58205.75
836.748	58236.75
836.997	58415.75
837.246	58485.75
837.495	58836.75
837.744	59295.75
837.993	60150.75
838.242	60459.75
838.491	60366.75
838.74	59395.75
838.989	58499.75
839.238	57922.75
839.487	57377.75
839.736	56899.75
839.984	56541.75
840.233	56341.75
840.482	56048.75
840.73	55802.75
840.979	55554.75
841.227	55471.75
841.476	55207.75
841.724	55112.75
841.972	55149.75
842.221	54729.75
842.469	54698.75
842.717	54502.75
842.965	54381.75
843.213	54164.75
843.461	53909.75
843.71	53808.75
843.958	53597.75
844.205	53557.75
844.453	53334.75
844.701	53330.75
844.949	53405.75
845.197	53238.75
845.445	53456.75
845.692	53481.75
845.94	53442.75
846.188	53391.75
846.435	53449.75
846.683	53219.75
846.93	52961.75
847.178	52819.75
847.425	52448.75
847.672	51869.75
847.92	51718.75
848.167	51183.75
848.414	50670.75
848.661	50327.75
848.908	50161.75
849.155	50059.75
849.402	50228.75
849.649	50021.75
849.896	50456.75
850.143	50902.75
850.39	51274.75
850.637	51202.75
850.884	51084.75
851.131	50869.75
851.377	50861.75
851.624	50693.75
851.87	50341.75
852.117	50210.75
852.364	49784.75
852.61	49784.75
852.856	49710.75
853.103	49351.75
853.349	49311.75
853.595	49224.75
853.842	48905.75
854.088	48806.75
854.334	48631.75
854.58	48534.75
854.826	48285.75
855.072	47940.75
855.318	47560.75
855.564	47293.75
855.81	46816.75
856.056	46382.75
856.302	46104.75
856.548	45857.75
856.793	45543.75
857.039	45213.75
857.285	45140.75
857.53	45244.75
857.776	45261.75
858.021	45265.75
858.267	45646.75
858.512	45597.75
858.758	45747.75
859.003	45547.75
859.248	45609.75
859.493	45579.75
859.739	45458.75
859.984	45424.75
860.229	44958.75
860.474	44939.75
860.719	44708.75
860.964	44414.75
861.209	44109.75
861.454	43873.75
861.699	43507.75
861.943	43362.75
862.188	43336.75
862.433	43002.75
862.678	43100.75
862.922	43001.75
863.167	42857.75
863.411	42653.75
863.656	42692.75
863.9	42537.75
864.145	42296.75
864.389	42188.75
864.634	42110.75
864.878	41949.75
865.122	41826.75
865.366	41684.75
865.61	41520.75
865.855	41532.75
866.099	41521.75
866.343	41258.75
866.587	41166.75
866.831	41268.75
867.074	41230.75
867.318	41203.75
867.562	41355.75
867.806	41281.75
868.05	41289.75
868.293	40912.75
868.537	41006.75
868.78	40722.75
869.024	40612.75
869.267	40239.75
869.511	39833.75
869.754	39617.75
869.998	39198.75
870.241	38943.75
870.484	38681.75
870.728	38296.75
870.971	38258.75
871.214	38070.75
871.457	38061.75
871.7	37951.75
871.943	37942.75
872.186	37994.75
872.429	38101.75
872.672	38177.75
872.915	38087.75
873.158	38013.75
873.4	37968.75
873.643	37798.75
873.886	37666.75
874.128	37414.75
874.371	37438.75
874.613	37436.75
874.856	37312.75
875.098	37257.75
875.341	37119.75
875.583	36941.75
875.825	36811.75
876.068	36666.75
876.31	36469.75
876.552	36104.75
876.794	35943.75
877.036	35661.75
877.278	35390.75
877.52	35284.75
877.762	35198.75
878.004	34868.75
878.246	34964.75
878.488	35056.75
878.73	34851.75
878.972	34864.75
879.213	34778.75
879.455	34802.75
879.697	34718.75
879.938	34559.75
880.18	34466.75
880.421	34433.75
880.663	34400.75
880.904	34541.75
881.145	34576.75
881.387	34719.75
881.628	34727.75
881.869	34519.75
882.11	34401.75
882.352	34080.75
882.593	33929.75
882.834	33869.75
883.075	33760.75
883.316	33559.75
883.557	33422.75
883.797	33208.75
884.038	33033.75
884.279	32669.75
884.52	32357.75
884.761	31979.75
885.001	31734.75
885.242	31475.75
885.482	31231.75
885.723	31119.75
885.963	30945.75
886.204	30890.75
886.444	30731.75
886.685	30549.75
886.925	30333.75
887.165	30413.75
887.405	30124.75
887.646	30116.75
887.886	29953.75
888.126	29989.75
888.366	30073.75
888.606	30021.75
888.846	30077.75
889.086	30277.75
889.326	30182.75
889.565	30242.75
889.805	30156.75
890.045	30109.75
890.285	29986.75
890.524	29906.75
890.764	29888.75
891.003	29516.75
891.243	29146.75
891.482	28917.75
891.722	28616.75
891.961	28471.75
892.201	28404.75
892.44	28281.75
892.679	28048.75
892.918	28079.75
893.158	27897.75
893.397	27994.75
893.636	27801.75
893.875	27781.75
894.114	27574.75
894.353	27541.75
894.592	27480.75
894.831	27320.75
895.069	27150.75
895.308	27075.75
895.547	26858.75
895.786	26651.75
896.024	26618.75
896.263	26643.75
896.501	26492.75
896.74	26447.75
896.978	26397.75
897.217	26151.75
897.455	26273.75
897.694	26110.75
897.932	26156.75
898.17	26098.75
898.408	25832.75
898.646	25908.75
898.885	25650.75
899.123	25598.75
899.361	25449.75
899.599	25189.75
899.837	25070.75
900.075	24933.75
900.312	24834.75
900.55	24536.75
900.788	24344.75
901.026	24272.75
901.263	23853.75
901.501	23760.75
901.739	23538.75
901.976	23498.75
902.214	23416.75
902.451	23313.75
902.689	23170.75
902.926	23260.75
903.163	23291.75
903.401	23194.75
903.638	23153.75
903.875	23162.75
904.112	23084.75
904.349	23177.75
904.586	23139.75
904.823	22952.75
905.06	22906.75
905.297	22655.75
905.534	22392.75
905.771	22349.75
906.008	22165.75
906.245	22008.75
906.481	21892.75
906.718	21781.75
906.955	21818.75
907.191	21688.75
907.428	21557.75
907.664	21568.75
907.901	21394.75
908.137	21368.75
908.374	21202.75
908.61	21096.75
908.846	20969.75
909.083	20838.75
909.319	20760.75
909.555	20668.75
909.791	20501.75
910.027	20324.75
910.263	20137.75
910.499	20080.75
910.735	19832.75
910.971	19738.75
911.207	19633.75
911.443	19500.75
911.678	19491.75
911.914	19275.75
912.15	19276.75
912.385	19257.75
912.621	19317.75
912.857	19307.75
913.092	19197.75
913.328	19154.75
913.563	19133.75
913.798	19100.75
914.034	19005.75
914.269	19055.75
914.504	19159.75
914.739	18987.75
914.975	18729.75
915.21	18583.75
915.445	18596.75
915.68	18458.75
915.915	18316.75
916.15	18118.75
916.384	17835.75
916.619	17618.75
916.854	17545.75
917.089	17487.75
917.324	17314.75
917.558	17171.75
917.793	17160.75
918.028	17083.75
918.262	17130.75
918.497	16992.75
918.731	17020.75
918.965	16980.75
919.2	16990.75
919.434	16868.75
919.668	16883.75
919.903	16771.75
920.137	16777.75
920.371	16680.75
920.605	16609.75
920.839	16459.75
921.073	16381.75
921.307	16183.75
921.541	16075.75
921.775	15997.75
922.009	16049.75
922.243	15900.75
922.476	15945.75
922.71	15932.75
922.944	15889.75
923.177	15818.75
923.411	15830.75
923.644	15813.75
923.878	15724.75
924.111	15627.75
924.345	15666.75
924.578	15627.75
924.811	15449.75
925.045	15313.75
925.278	15241.75
925.511	15132.75
925.744	15040.75
925.977	14872.75
926.21	14766.75
926.443	14762.75
926.676	14575.75
926.909	14509.75
927.142	14472.75
927.375	14428.75
927.608	14282.75
927.841	14164.75
928.073	14028.75
928.306	14072.75
928.539	13985.75
928.771	13962.75
929.004	14011.75
929.236	14080.75
929.469	13962.75
929.701	14035.75
929.933	14044.75
930.166	14010.75
930.398	14006.75
930.63	13927.75
930.862	13914.75
931.094	13833.75
931.327	13818.75
931.559	13667.75
931.791	13563.75
932.023	13541.75
932.255	13444.75
932.486	13314.75
932.718	13239.75
932.95	13100.75
933.182	13098.75
933.413	13052.75
933.645	12979.75
933.877	12982.75
934.108	12894.75
934.34	12833.75
934.571	12768.75
934.803	12762.75
935.034	12654.75
935.265	12553.75
935.497	12585.75
935.728	12527.75
935.959	12553.75
936.19	12407.75
936.422	12403.75
936.653	12288.75
936.884	12259.75
937.115	12150.75
937.346	12096.75
937.577	12014.75
937.807	11984.75
938.038	11860.75
938.269	11946.75
938.5	11882.75
938.73	11852.75
938.961	11882.75
939.192	11865.75
939.422	11816.75
939.653	11834.75
939.883	11831.75
940.114	11719.75
940.344	11671.75
940.574	11676.75
940.805	11577.75
941.035	11487.75
941.265	11493.75
941.495	11401.75
941.726	11250.75
941.956	11220.75
942.186	11163.75
942.416	11069.75
942.646	10898.75
942.876	10919.75
943.105	10824.75
943.335	10688.75
943.565	10579.75
943.795	10518.75
944.024	10509.75
944.254	10346.75
944.484	10334.75
944.713	10263.75
944.943	10256.75
945.172	10240.75
945.402	10229.75
945.631	10236.75
945.86	10135.75
946.09	10178.75
946.319	10189.75
946.548	10190.75
946.777	10156.75
947.006	10110.75
947.235	10085.75
947.465	10010.75
947.694	9947.75
947.922	9878.75
948.151	9817.75
948.38	9774.75
948.609	9660.75
948.838	9609.75
949.067	9511.75
949.295	9494.75
949.524	9459.75
949.752	9416.75
949.981	9305.75
950.21	9278.75
950.438	9253.75
950.666	9171.75
950.895	9171.75
951.123	9031.75
951.351	8970.75
951.58	9025.75
951.808	8885.75
952.036	8854.75
952.264	8852.75
952.492	8780.75
952.72	8699.75
952.948	8706.75
953.176	8657.75
953.404	8495.75
953.632	8513.75
953.86	8462.75
954.088	8354.75
954.315	8312.75
954.543	8191.75
954.771	8265.75
954.998	8166.75
955.226	8178.75
955.453	8100.75
955.681	8097.75
955.908	8101.75
956.135	8036.75
956.363	8051.75
956.59	7986.75
956.817	7996.75
957.045	7954.75
957.272	7950.75
957.499	7906.75
957.726	7923.75
957.953	7889.75
958.18	7823.75
958.407	7740.75
958.634	7761.75
958.861	7701.75
959.087	7670.75
959.314	7556.75
959.541	7531.75
959.767	7533.75
959.994	7434.75
960.221	7392.75
960.447	7301.75
960.674	7317.75
960.9	7193.75
961.127	7149.75
961.353	7083.75
961.579	7030.75
961.806	6987.75
962.032	6939.75
962.258	6987.75
962.484	6954.75
962.71	6950.75
962.936	6846.75
963.162	6883.75
963.388	6878.75
963.614	6851.75
963.84	6740.75
964.066	6799.75
964.292	6782.75
964.518	6724.75
964.743	6741.75
964.969	6640.75
965.195	6685.75
965.42	6644.75
965.646	6556.75
965.871	6587.75
966.097	6539.75
966.322	6492.75
966.547	6461.75
966.773	6488.75
966.998	6386.75
967.223	6408.75
967.448	6395.75
967.674	6328.75
967.899	6282.75
968.124	6212.75
968.349	6230.75
968.574	6194.75
968.799	6147.75
969.024	6067.75
969.248	6084.75
969.473	6036.75
969.698	6032.75
969.923	5964.75
970.147	5955.75
970.372	5856.75
970.596	5858.75
970.821	5895.75
971.046	5809.75
971.27	5763.75
971.494	5702.75
971.719	5693.75
971.943	5672.75
972.167	5607.75
972.392	5570.75
972.616	5529.75
972.84	5500.75
973.064	5494.75
973.288	5419.75
973.512	5453.75
973.736	5467.75
973.96	5387.75
974.184	5365.75
974.408	5371.75
974.631	5300.75
974.855	5330.75
975.079	5329.75
975.303	5313.75
975.526	5229.75
975.75	5230.75
975.973	5185.75
976.197	5160.75
976.42	5128.75
976.644	5158.75
976.867	5071.75
977.09	5092.75
977.313	5051.75
977.537	5070.75
977.76	4967.75
977.983	4974.75
978.206	4884.75
978.429	4858.75
978.652	4845.75
978.875	4827.75
979.098	4765.75
979.321	4778.75
979.544	4636.75
979.767	4665.75
979.989	4620.75
980.212	4627.75
980.435	4622.75
980.657	4507.75
980.88	4577.75
981.102	4561.75
981.325	4515.75
981.547	4469.75
981.77	4460.75
981.992	4424.75
982.214	4429.75
982.437	4459.75
982.659	4384.75
982.881	4361.75
983.103	4345.75
983.325	4312.75
983.547	4371.75
983.769	4370.75
983.991	4246.75
984.213	4255.75
984.435	4236.75
984.657	4216.75
984.879	4202.75
985.1	4139.75
985.322	4159.75
985.544	4118.75
985.765	4112.75
985.987	4122.75
986.208	4110.75
986.43	4060.75
986.651	4032.75
986.873	3991.75
987.094	4005.75
987.315	3963.75
987.536	3943.75
987.758	3924.75
987.979	3896.75
988.2	3854.75
988.421	3830.75
988.642	3806.75
988.863	3759.75
989.084	3759.75
989.305	3753.75
989.526	3723.75
989.747	3694.75
989.967	3705.75
990.188	3669.75
990.409	3637.75
990.629	3600.75
990.85	3579.75
991.071	3508.75
991.291	3535.75
991.512	3482.75
991.732	3432.75
991.952	3480.75
992.173	3467.75
992.393	3456.75
992.613	3447.75
992.834	3480.75
993.054	3464.75
993.274	3393.75
993.494	3383.75
993.714	3406.75
993.934	3419.75
994.154	3399.75
994.374	3346.75
994.594	3333.75
994.813	3339.75
995.033	3336.75
995.253	3314.75
995.473	3314.75
995.692	3242.75
995.912	3236.75
996.131	3206.75
996.351	3230.75
996.57	3198.75
996.79	3139.75
997.009	3098.75
997.228	3133.75
997.448	3062.75
997.667	3040.75
997.886	2997.75
998.105	3006.75
998.325	2972.75
998.544	2962.75
998.763	2915.75
998.982	2908.75
999.201	2910.75
999.419	2857.75
999.638	2837.75
999.857	2841.75
1000.076	2852.75
1000.295	2789.75
1000.513	2819.75
1000.732	2805.75
1000.95	2735.75
1001.169	2792.75
1001.388	2774.75
1001.606	2749.75
1001.824	2761.75
1002.043	2731.75
1002.261	2735.75
1002.479	2735.75
1002.698	2722.75
1002.916	2704.75
1003.134	2712.75
1003.352	2636.75
1003.57	2644.75
1003.788	2677.75
1004.006	2624.75
1004.224	2642.75
1004.442	2639.75
1004.66	2617.75
1004.878	2624.75
1005.095	2607.75
1005.313	2603.75
1005.531	2595.75
1005.748	2554.75
1005.966	2597.75
1006.184	2580.75
1006.401	2551.75
1006.618	2556.75
1006.836	2492.75
1007.053	2535.75
1007.271	2540.75
1007.488	2515.75
1007.705	2537.75
1007.922	2519.75
1008.139	2480.75
1008.357	2523.75
1008.574	2555.75
1008.791	2577.75
1009.008	2636.75
1009.225	2588.75
1009.441	2633.75
1009.658	2654.75
1009.875	2680.75
1010.092	2669.75
1010.309	2612.75
1010.525	2591.75
1010.742	2547.75
1010.958	2508.75
1011.175	2532.75
1011.391	2530.75
1011.608	2533.75
1011.824	2487.75
1012.041	2444.75
1012.257	2455.75
1012.473	2412.75
1012.689	2382.75
1012.906	2376.75
1013.122	2401.75
1013.338	2367.75
1013.554	2391.75
1013.77	2395.75
1013.986	2406.75
1014.202	2408.75
1014.418	2481.75
1014.634	2543.75
1014.849	2590.75
1015.065	2608.75
1015.281	2615.75
1015.496	2605.75
1015.712	2591.75
1015.928	2502.75
1016.143	2435.75
1016.359	2425.75
1016.574	2378.75
1016.79	2284.75
1017.005	2285.75
1017.22	2186.75
1017.435	2153.75
1017.651	2088.75
1017.866	2044.75
1018.081	2012.75
1018.296	1976.75
1018.511	1977.75
1018.726	1969.75
1018.941	1943.75
1019.156	1919.75
1019.371	1933.75
1019.586	1918.75
1019.801	1929.75
1020.015	1911.75
1020.23	1878.75
1020.445	1842.75
1020.659	1826.75
1020.874	1806.75
1021.088	1747.75
1021.303	1754.75
1021.517	1680.75
1021.732	1672.75
1021.946	1669.75
1022.16	1651.75
1022.375	1623.75
1022.589	1586.75
1022.803	1545.75
1023.017	1537.75
1023.231	1505.75
1023.445	1492.75
1023.659	1443.75
1023.873	1428.75
1024.087	1398.75
1024.301	1387.75
1024.515	1359.75
1024.729	1321.75
1024.942	1285.75
1025.156	1294.75
1025.37	1287.75
1025.583	1254.75
1025.797	1204.75
1026.01	1214.75
1026.224	1170.75
1026.437	1129.75
1026.651	1089.75
1026.864	1064.75
1027.077	1066.75
1027.291	1034.75
1027.504	1017.75
1027.717	962.75
1027.93	939.75
1028.143	927.75
1028.356	906.75
1028.569	850.75
1028.782	792.75
1028.995	-0.25
1029.208	-3.25
1029.421	-3.25
1029.634	-3.25
