Data from QEP037381__115__15-05-53-784.txt Node

Date: Mon Mar 14 15:05:53 EDT 2022
User: dcclab
Spectrometer: QEP03738
Trigger mode: 4
Integration Time (sec): 2.500000E0
Scans to average: 1
Electric dark correction enabled: true
Nonlinearity correction enabled: false
Boxcar width: 0
XAxis mode: Wavelengths
Number of Pixels in Spectrum: 1044
>>>>>Begin Spectral Data<<<<<
783.959	14.38
784.218	-2.62
784.476	-1.62
784.734	-4.62
784.992	243.38
785.251	236.38
785.509	221.38
785.767	213.38
786.025	209.38
786.283	214.38
786.541	207.38
786.798	207.38
787.056	206.38
787.314	183.38
787.572	198.38
787.83	195.38
788.087	191.38
788.345	188.38
788.602	186.38
788.86	195.38
789.117	199.38
789.375	175.38
789.632	184.38
789.89	188.38
790.147	208.38
790.404	195.38
790.661	198.38
790.919	209.38
791.176	198.38
791.433	190.38
791.69	210.38
791.947	205.38
792.204	191.38
792.461	206.38
792.718	207.38
792.974	209.38
793.231	212.38
793.488	240.38
793.745	224.38
794.001	240.38
794.258	248.38
794.514	242.38
794.771	275.38
795.027	269.38
795.284	273.38
795.54	292.38
795.797	294.38
796.053	342.38
796.309	359.38
796.565	374.38
796.822	410.38
797.078	459.38
797.334	537.38
797.59	623.38
797.846	738.38
798.102	984.38
798.358	1259.38
798.614	1785.38
798.869	2564.38
799.125	3785.38
799.381	5531.38
799.637	7773.38
799.892	10616.38
800.148	13609.38
800.403	16671.38
800.659	19137.38
800.914	21146.38
801.17	22480.38
801.425	23595.38
801.68	24070.38
801.936	24799.38
802.191	25270.38
802.446	25880.38
802.701	26367.38
802.957	26929.38
803.212	27414.38
803.467	28032.38
803.722	28579.38
803.977	29130.38
804.232	29693.38
804.486	30223.38
804.741	30853.38
804.996	31489.38
805.251	32177.38
805.505	32688.38
805.76	33192.38
806.015	33688.38
806.269	34128.38
806.524	34678.38
806.778	34831.38
807.033	35215.38
807.287	35675.38
807.541	36207.38
807.796	36743.38
808.05	37100.38
808.304	37423.38
808.558	37774.38
808.812	38026.38
809.066	38301.38
809.32	38504.38
809.574	38906.38
809.828	39122.38
810.082	39490.38
810.336	39864.38
810.59	40207.38
810.844	40717.38
811.097	41018.38
811.351	41879.38
811.605	42466.38
811.858	43036.38
812.112	43880.38
812.365	44603.38
812.619	45309.38
812.872	45869.38
813.126	46551.38
813.379	47257.38
813.632	47890.38
813.885	48358.38
814.139	49179.38
814.392	50100.38
814.645	50778.38
814.898	51670.38
815.151	52649.38
815.404	53723.38
815.657	54548.38
815.91	55565.38
816.163	56078.38
816.416	56694.38
816.668	57313.38
816.921	57817.38
817.174	57917.38
817.426	58037.38
817.679	58057.38
817.931	57997.38
818.184	58014.38
818.436	57972.38
818.689	58168.38
818.941	58294.38
819.194	58460.38
819.446	58680.38
819.698	58925.38
819.95	59156.38
820.202	59437.38
820.455	59734.38
820.707	60064.38
820.959	60053.38
821.211	60024.38
821.462	60194.38
821.714	59997.38
821.966	59737.38
822.218	59583.38
822.47	59305.38
822.722	59038.38
822.973	58859.38
823.225	58732.38
823.476	58590.38
823.728	58672.38
823.979	58973.38
824.231	58756.38
824.482	58793.38
824.734	59008.38
824.985	58966.38
825.236	58889.38
825.487	58883.38
825.739	58771.38
825.99	58380.38
826.241	58258.38
826.492	57900.38
826.743	57747.38
826.994	57595.38
827.245	57288.38
827.496	57471.38
827.747	57478.38
827.997	57381.38
828.248	57357.38
828.499	57463.38
828.75	57430.38
829	57607.38
829.251	57607.38
829.501	57454.38
829.752	57422.38
830.002	56757.38
830.253	56581.38
830.503	56374.38
830.753	56025.38
831.004	55677.38
831.254	55548.38
831.504	55331.38
831.754	55173.38
832.004	55198.38
832.254	55379.38
832.504	55216.38
832.754	55448.38
833.004	55421.38
833.254	55373.38
833.504	55312.38
833.754	55184.38
834.003	54976.38
834.253	54788.38
834.503	54462.38
834.752	54199.38
835.002	54007.38
835.252	53845.38
835.501	53561.38
835.75	53469.38
836	53325.38
836.249	53459.38
836.499	53521.38
836.748	53421.38
836.997	53566.38
837.246	53758.38
837.495	54169.38
837.744	54513.38
837.993	55264.38
838.242	55799.38
838.491	55517.38
838.74	54753.38
838.989	53775.38
839.238	53178.38
839.487	52480.38
839.736	52189.38
839.984	51804.38
840.233	51612.38
840.482	51464.38
840.73	51271.38
840.979	51048.38
841.227	50905.38
841.476	50796.38
841.724	50642.38
841.972	50362.38
842.221	50495.38
842.469	50199.38
842.717	50137.38
842.965	49902.38
843.213	49758.38
843.461	49455.38
843.71	49391.38
843.958	49140.38
844.205	49236.38
844.453	49075.38
844.701	49044.38
844.949	48976.38
845.197	48849.38
845.445	49051.38
845.692	49123.38
845.94	49188.38
846.188	49022.38
846.435	48969.38
846.683	48820.38
846.93	48670.38
847.178	48551.38
847.425	48267.38
847.672	48080.38
847.92	47473.38
848.167	47249.38
848.414	46755.38
848.661	46557.38
848.908	46161.38
849.155	46026.38
849.402	46021.38
849.649	46156.38
849.896	46495.38
850.143	46980.38
850.39	47123.38
850.637	47206.38
850.884	47024.38
851.131	46977.38
851.377	46895.38
851.624	46747.38
851.87	46370.38
852.117	46229.38
852.364	46093.38
852.61	45901.38
852.856	45820.38
853.103	45588.38
853.349	45554.38
853.595	45446.38
853.842	45030.38
854.088	44894.38
854.334	44996.38
854.58	44781.38
854.826	44465.38
855.072	44381.38
855.318	43910.38
855.564	43390.38
855.81	43100.38
856.056	42990.38
856.302	42539.38
856.548	42294.38
856.793	42090.38
857.039	41813.38
857.285	41608.38
857.53	41701.38
857.776	41654.38
858.021	41719.38
858.267	41911.38
858.512	42164.38
858.758	42225.38
859.003	42186.38
859.248	42268.38
859.493	42161.38
859.739	42048.38
859.984	41991.38
860.229	41716.38
860.474	41563.38
860.719	41465.38
860.964	41158.38
861.209	40831.38
861.454	40687.38
861.699	40187.38
861.943	40116.38
862.188	39877.38
862.433	39738.38
862.678	39672.38
862.922	39759.38
863.167	39594.38
863.411	39474.38
863.656	39428.38
863.9	39464.38
864.145	39196.38
864.389	38961.38
864.634	38815.38
864.878	38713.38
865.122	38475.38
865.366	38434.38
865.61	38523.38
865.855	38395.38
866.099	38336.38
866.343	38276.38
866.587	38119.38
866.831	38163.38
867.074	38168.38
867.318	38188.38
867.562	38243.38
867.806	38235.38
868.05	38051.38
868.293	37985.38
868.537	37938.38
868.78	37958.38
869.024	37511.38
869.267	37132.38
869.511	37200.38
869.754	36736.38
869.998	36382.38
870.241	36079.38
870.484	35652.38
870.728	35565.38
870.971	35459.38
871.214	35329.38
871.457	35270.38
871.7	35155.38
871.943	35235.38
872.186	35345.38
872.429	35348.38
872.672	35470.38
872.915	35250.38
873.158	35117.38
873.4	35248.38
873.643	35098.38
873.886	34880.38
874.128	34814.38
874.371	34667.38
874.613	34688.38
874.856	34530.38
875.098	34458.38
875.341	34347.38
875.583	34251.38
875.825	34163.38
876.068	34024.38
876.31	33800.38
876.552	33515.38
876.794	33472.38
877.036	33011.38
877.278	32841.38
877.52	32623.38
877.762	32649.38
878.004	32384.38
878.246	32513.38
878.488	32394.38
878.73	32529.38
878.972	32301.38
879.213	32357.38
879.455	32321.38
879.697	32181.38
879.938	32083.38
880.18	32105.38
880.421	32011.38
880.663	31953.38
880.904	32050.38
881.145	32243.38
881.387	32387.38
881.628	32344.38
881.869	32047.38
882.11	31830.38
882.352	31782.38
882.593	31515.38
882.834	31568.38
883.075	31374.38
883.316	31237.38
883.557	31141.38
883.797	30938.38
884.038	30658.38
884.279	30476.38
884.52	30037.38
884.761	29774.38
885.001	29545.38
885.242	29289.38
885.482	29122.38
885.723	28990.38
885.963	28755.38
886.204	28649.38
886.444	28551.38
886.685	28417.38
886.925	28359.38
887.165	28184.38
887.405	28033.38
887.646	28044.38
887.886	27807.38
888.126	27876.38
888.366	28020.38
888.606	27896.38
888.846	28026.38
889.086	27967.38
889.326	28139.38
889.565	28029.38
889.805	28076.38
890.045	27970.38
890.285	27933.38
890.524	27828.38
890.764	27597.38
891.003	27497.38
891.243	27199.38
891.482	26817.38
891.722	26656.38
891.961	26547.38
892.201	26417.38
892.44	26341.38
892.679	26059.38
892.918	26096.38
893.158	26069.38
893.397	26017.38
893.636	25859.38
893.875	25906.38
894.114	25746.38
894.353	25653.38
894.592	25612.38
894.831	25349.38
895.069	25305.38
895.308	25167.38
895.547	25067.38
895.786	24895.38
896.024	24723.38
896.263	24719.38
896.501	24738.38
896.74	24631.38
896.978	24686.38
897.217	24518.38
897.455	24547.38
897.694	24383.38
897.932	24159.38
898.17	24230.38
898.408	24185.38
898.646	24078.38
898.885	23961.38
899.123	23763.38
899.361	23608.38
899.599	23634.38
899.837	23458.38
900.075	23303.38
900.312	23191.38
900.55	23020.38
900.788	22649.38
901.026	22506.38
901.263	22395.38
901.501	22141.38
901.739	22036.38
901.976	21883.38
902.214	21791.38
902.451	21803.38
902.689	21776.38
902.926	21655.38
903.163	21612.38
903.401	21675.38
903.638	21686.38
903.875	21592.38
904.112	21510.38
904.349	21654.38
904.586	21431.38
904.823	21452.38
905.06	21226.38
905.297	21159.38
905.534	20900.38
905.771	20844.38
906.008	20746.38
906.245	20641.38
906.481	20544.38
906.718	20377.38
906.955	20316.38
907.191	20263.38
907.428	20085.38
907.664	20005.38
907.901	19935.38
908.137	19953.38
908.374	19810.38
908.61	19716.38
908.846	19630.38
909.083	19406.38
909.319	19392.38
909.555	19281.38
909.791	19145.38
910.027	18866.38
910.263	18918.38
910.499	18738.38
910.735	18566.38
910.971	18455.38
911.207	18463.38
911.443	18270.38
911.678	18162.38
911.914	18017.38
912.15	17981.38
912.385	17949.38
912.621	18071.38
912.857	17958.38
913.092	18034.38
913.328	17947.38
913.563	17828.38
913.798	17788.38
914.034	17799.38
914.269	17810.38
914.504	17770.38
914.739	17773.38
914.975	17528.38
915.21	17400.38
915.445	17319.38
915.68	17168.38
915.915	17072.38
916.15	16809.38
916.384	16623.38
916.619	16582.38
916.854	16428.38
917.089	16365.38
917.324	16210.38
917.558	16097.38
917.793	16048.38
918.028	15958.38
918.262	15861.38
918.497	15916.38
918.731	16027.38
918.965	15843.38
919.2	15751.38
919.434	15783.38
919.668	15754.38
919.903	15724.38
920.137	15671.38
920.371	15565.38
920.605	15527.38
920.839	15358.38
921.073	15295.38
921.307	15234.38
921.541	15141.38
921.775	14921.38
922.009	14879.38
922.243	14890.38
922.476	14911.38
922.71	14865.38
922.944	14817.38
923.177	14821.38
923.411	14772.38
923.644	14776.38
923.878	14743.38
924.111	14700.38
924.345	14686.38
924.578	14571.38
924.811	14433.38
925.045	14338.38
925.278	14326.38
925.511	14194.38
925.744	14073.38
925.977	13976.38
926.21	13912.38
926.443	13811.38
926.676	13688.38
926.909	13618.38
927.142	13574.38
927.375	13288.38
927.608	13321.38
927.841	13321.38
928.073	13228.38
928.306	13223.38
928.539	13162.38
928.771	13114.38
929.004	13158.38
929.236	13207.38
929.469	13104.38
929.701	13110.38
929.933	13257.38
930.166	13146.38
930.398	13092.38
930.63	13156.38
930.862	13062.38
931.094	13012.38
931.327	12933.38
931.559	12883.38
931.791	12681.38
932.023	12609.38
932.255	12666.38
932.486	12473.38
932.718	12437.38
932.95	12344.38
933.182	12266.38
933.413	12248.38
933.645	12137.38
933.877	12152.38
934.108	12124.38
934.34	12051.38
934.571	11972.38
934.803	11891.38
935.034	11885.38
935.265	11752.38
935.497	11841.38
935.728	11762.38
935.959	11773.38
936.19	11692.38
936.422	11600.38
936.653	11549.38
936.884	11524.38
937.115	11407.38
937.346	11470.38
937.577	11253.38
937.807	11200.38
938.038	11271.38
938.269	11145.38
938.5	11134.38
938.73	11077.38
938.961	11093.38
939.192	11125.38
939.422	11151.38
939.653	11128.38
939.883	11145.38
940.114	11047.38
940.344	10936.38
940.574	10900.38
940.805	10915.38
941.035	10893.38
941.265	10745.38
941.495	10651.38
941.726	10609.38
941.956	10565.38
942.186	10485.38
942.416	10474.38
942.646	10350.38
942.876	10245.38
943.105	10164.38
943.335	10099.38
943.565	10047.38
943.795	9900.38
944.024	9826.38
944.254	9788.38
944.484	9740.38
944.713	9695.38
944.943	9591.38
945.172	9642.38
945.402	9598.38
945.631	9630.38
945.86	9569.38
946.09	9537.38
946.319	9586.38
946.548	9548.38
946.777	9524.38
947.006	9469.38
947.235	9452.38
947.465	9474.38
947.694	9309.38
947.922	9347.38
948.151	9215.38
948.38	9167.38
948.609	9010.38
948.838	9025.38
949.067	8981.38
949.295	8985.38
949.524	8858.38
949.752	8823.38
949.981	8791.38
950.21	8724.38
950.438	8708.38
950.666	8680.38
950.895	8566.38
951.123	8486.38
951.351	8523.38
951.58	8433.38
951.808	8444.38
952.036	8377.38
952.264	8297.38
952.492	8324.38
952.72	8283.38
952.948	8191.38
953.176	8141.38
953.404	8044.38
953.632	8069.38
953.86	7966.38
954.088	7874.38
954.315	7862.38
954.543	7819.38
954.771	7784.38
954.998	7649.38
955.226	7647.38
955.453	7695.38
955.681	7600.38
955.908	7678.38
956.135	7555.38
956.363	7587.38
956.59	7642.38
956.817	7573.38
957.045	7551.38
957.272	7505.38
957.499	7427.38
957.726	7432.38
957.953	7411.38
958.18	7294.38
958.407	7319.38
958.634	7335.38
958.861	7257.38
959.087	7230.38
959.314	7197.38
959.541	7182.38
959.767	7050.38
959.994	6996.38
960.221	6914.38
960.447	6888.38
960.674	6836.38
960.9	6758.38
961.127	6824.38
961.353	6708.38
961.579	6611.38
961.806	6603.38
962.032	6616.38
962.258	6630.38
962.484	6514.38
962.71	6508.38
962.936	6471.38
963.162	6459.38
963.388	6441.38
963.614	6440.38
963.84	6426.38
964.066	6414.38
964.292	6432.38
964.518	6423.38
964.743	6327.38
964.969	6286.38
965.195	6318.38
965.42	6270.38
965.646	6244.38
965.871	6187.38
966.097	6168.38
966.322	6145.38
966.547	6110.38
966.773	6112.38
966.998	6041.38
967.223	6056.38
967.448	5961.38
967.674	5905.38
967.899	5937.38
968.124	5891.38
968.349	5857.38
968.574	5751.38
968.799	5798.38
969.024	5783.38
969.248	5760.38
969.473	5732.38
969.698	5699.38
969.923	5703.38
970.147	5651.38
970.372	5581.38
970.596	5493.38
970.821	5496.38
971.046	5475.38
971.27	5510.38
971.494	5388.38
971.719	5406.38
971.943	5316.38
972.167	5331.38
972.392	5267.38
972.616	5288.38
972.84	5219.38
973.064	5203.38
973.288	5160.38
973.512	5128.38
973.736	5132.38
973.96	5092.38
974.184	5101.38
974.408	5117.38
974.631	5067.38
974.855	5021.38
975.079	5053.38
975.303	4980.38
975.526	4992.38
975.75	4939.38
975.973	4921.38
976.197	4888.38
976.42	4834.38
976.644	4807.38
976.867	4834.38
977.09	4820.38
977.313	4767.38
977.537	4746.38
977.76	4643.38
977.983	4693.38
978.206	4665.38
978.429	4615.38
978.652	4534.38
978.875	4561.38
979.098	4500.38
979.321	4536.38
979.544	4434.38
979.767	4460.38
979.989	4404.38
980.212	4343.38
980.435	4345.38
980.657	4346.38
980.88	4311.38
981.102	4282.38
981.325	4320.38
981.547	4242.38
981.77	4224.38
981.992	4203.38
982.214	4203.38
982.437	4170.38
982.659	4146.38
982.881	4143.38
983.103	4092.38
983.325	4078.38
983.547	4074.38
983.769	4063.38
983.991	4062.38
984.213	4043.38
984.435	4015.38
984.657	3969.38
984.879	3957.38
985.1	3951.38
985.322	3919.38
985.544	3918.38
985.765	3913.38
985.987	3892.38
986.208	3887.38
986.43	3845.38
986.651	3859.38
986.873	3779.38
987.094	3779.38
987.315	3751.38
987.536	3674.38
987.758	3729.38
987.979	3664.38
988.2	3692.38
988.421	3652.38
988.642	3647.38
988.863	3581.38
989.084	3563.38
989.305	3573.38
989.526	3544.38
989.747	3519.38
989.967	3473.38
990.188	3473.38
990.409	3416.38
990.629	3387.38
990.85	3412.38
991.071	3396.38
991.291	3375.38
991.512	3336.38
991.732	3312.38
991.952	3315.38
992.173	3324.38
992.393	3268.38
992.613	3276.38
992.834	3290.38
993.054	3263.38
993.274	3213.38
993.494	3249.38
993.714	3245.38
993.934	3244.38
994.154	3225.38
994.374	3210.38
994.594	3150.38
994.813	3172.38
995.033	3137.38
995.253	3152.38
995.473	3156.38
995.692	3121.38
995.912	3103.38
996.131	3060.38
996.351	3032.38
996.57	2995.38
996.79	2974.38
997.009	2967.38
997.228	2925.38
997.448	2922.38
997.667	2940.38
997.886	2879.38
998.105	2844.38
998.325	2834.38
998.544	2828.38
998.763	2806.38
998.982	2813.38
999.201	2723.38
999.419	2727.38
999.638	2746.38
999.857	2752.38
1000.076	2698.38
1000.295	2701.38
1000.513	2715.38
1000.732	2656.38
1000.95	2648.38
1001.169	2688.38
1001.388	2625.38
1001.606	2637.38
1001.824	2608.38
1002.043	2593.38
1002.261	2580.38
1002.479	2602.38
1002.698	2602.38
1002.916	2546.38
1003.134	2559.38
1003.352	2538.38
1003.57	2525.38
1003.788	2561.38
1004.006	2496.38
1004.224	2493.38
1004.442	2464.38
1004.66	2518.38
1004.878	2542.38
1005.095	2483.38
1005.313	2490.38
1005.531	2459.38
1005.748	2463.38
1005.966	2545.38
1006.184	2438.38
1006.401	2440.38
1006.618	2419.38
1006.836	2435.38
1007.053	2442.38
1007.271	2438.38
1007.488	2435.38
1007.705	2471.38
1007.922	2429.38
1008.139	2363.38
1008.357	2427.38
1008.574	2437.38
1008.791	2446.38
1009.008	2506.38
1009.225	2531.38
1009.441	2572.38
1009.658	2560.38
1009.875	2565.38
1010.092	2583.38
1010.309	2531.38
1010.525	2529.38
1010.742	2480.38
1010.958	2450.38
1011.175	2433.38
1011.391	2420.38
1011.608	2401.38
1011.824	2397.38
1012.041	2349.38
1012.257	2366.38
1012.473	2350.38
1012.689	2300.38
1012.906	2323.38
1013.122	2302.38
1013.338	2293.38
1013.554	2289.38
1013.77	2333.38
1013.986	2318.38
1014.202	2331.38
1014.418	2381.38
1014.634	2446.38
1014.849	2519.38
1015.065	2516.38
1015.281	2547.38
1015.496	2543.38
1015.712	2463.38
1015.928	2436.38
1016.143	2365.38
1016.359	2343.38
1016.574	2272.38
1016.79	2233.38
1017.005	2202.38
1017.22	2096.38
1017.435	2084.38
1017.651	2056.38
1017.866	2039.38
1018.081	1917.38
1018.296	1938.38
1018.511	1898.38
1018.726	1891.38
1018.941	1870.38
1019.156	1871.38
1019.371	1868.38
1019.586	1849.38
1019.801	1839.38
1020.015	1843.38
1020.23	1809.38
1020.445	1788.38
1020.659	1803.38
1020.874	1760.38
1021.088	1717.38
1021.303	1689.38
1021.517	1653.38
1021.732	1636.38
1021.946	1639.38
1022.16	1591.38
1022.375	1529.38
1022.589	1556.38
1022.803	1519.38
1023.017	1506.38
1023.231	1459.38
1023.445	1459.38
1023.659	1399.38
1023.873	1378.38
1024.087	1332.38
1024.301	1328.38
1024.515	1286.38
1024.729	1282.38
1024.942	1245.38
1025.156	1246.38
1025.37	1247.38
1025.583	1195.38
1025.797	1170.38
1026.01	1149.38
1026.224	1104.38
1026.437	1088.38
1026.651	1046.38
1026.864	1016.38
1027.077	1030.38
1027.291	984.38
1027.504	952.38
1027.717	929.38
1027.93	938.38
1028.143	898.38
1028.356	867.38
1028.569	823.38
1028.782	789.38
1028.995	-1.62
1029.208	-1.62
1029.421	-1.62
1029.634	-0.62
