Data from QEP037381__107__15-05-33-783.txt Node

Date: Mon Mar 14 15:05:33 EDT 2022
User: dcclab
Spectrometer: QEP03738
Trigger mode: 4
Integration Time (sec): 2.500000E0
Scans to average: 1
Electric dark correction enabled: true
Nonlinearity correction enabled: false
Boxcar width: 0
XAxis mode: Wavelengths
Number of Pixels in Spectrum: 1044
>>>>>Begin Spectral Data<<<<<
783.959	14.38
784.218	1.38
784.476	-0.62
784.734	-6.62
784.992	234.38
785.251	227.38
785.509	225.38
785.767	217.38
786.025	219.38
786.283	219.38
786.541	208.38
786.798	201.38
787.056	204.38
787.314	183.38
787.572	210.38
787.83	192.38
788.087	205.38
788.345	191.38
788.602	199.38
788.86	189.38
789.117	192.38
789.375	191.38
789.632	187.38
789.89	174.38
790.147	201.38
790.404	195.38
790.661	191.38
790.919	208.38
791.176	198.38
791.433	204.38
791.69	201.38
791.947	196.38
792.204	197.38
792.461	212.38
792.718	212.38
792.974	204.38
793.231	209.38
793.488	232.38
793.745	226.38
794.001	234.38
794.258	268.38
794.514	256.38
794.771	267.38
795.027	267.38
795.284	274.38
795.54	293.38
795.797	296.38
796.053	326.38
796.309	365.38
796.565	372.38
796.822	411.38
797.078	464.38
797.334	526.38
797.59	618.38
797.846	764.38
798.102	993.38
798.358	1269.38
798.614	1833.38
798.869	2612.38
799.125	3838.38
799.381	5590.38
799.637	7935.38
799.892	10684.38
800.148	13813.38
800.403	16763.38
800.659	19312.38
800.914	21373.38
801.17	22701.38
801.425	23653.38
801.68	24277.38
801.936	24922.38
802.191	25390.38
802.446	25972.38
802.701	26621.38
802.957	27116.38
803.212	27700.38
803.467	28221.38
803.722	28840.38
803.977	29386.38
804.232	30136.38
804.486	30562.38
804.741	30983.38
804.996	31552.38
805.251	32375.38
805.505	32817.38
805.76	33452.38
806.015	33824.38
806.269	34360.38
806.524	34897.38
806.778	35261.38
807.033	35626.38
807.287	35998.38
807.541	36527.38
807.796	37034.38
808.05	37455.38
808.304	37834.38
808.558	38004.38
808.812	38393.38
809.066	38670.38
809.32	38855.38
809.574	39245.38
809.828	39511.38
810.082	39697.38
810.336	40200.38
810.59	40591.38
810.844	40919.38
811.097	41382.38
811.351	42103.38
811.605	42807.38
811.858	43390.38
812.112	44172.38
812.365	44754.38
812.619	45701.38
812.872	46252.38
813.126	46968.38
813.379	47501.38
813.632	48201.38
813.885	48915.38
814.139	49662.38
814.392	50418.38
814.645	51224.38
814.898	52144.38
815.151	53150.38
815.404	54239.38
815.657	55063.38
815.91	56096.38
816.163	56632.38
816.416	57308.38
816.668	57742.38
816.921	58359.38
817.174	58429.38
817.426	58372.38
817.679	58506.38
817.931	58435.38
818.184	58399.38
818.436	58616.38
818.689	58639.38
818.941	58484.38
819.194	58821.38
819.446	59101.38
819.698	59444.38
819.95	59682.38
820.202	60099.38
820.455	60270.38
820.707	60215.38
820.959	60480.38
821.211	60770.38
821.462	60659.38
821.714	60533.38
821.966	60267.38
822.218	59887.38
822.47	59804.38
822.722	59443.38
822.973	59407.38
823.225	59244.38
823.476	59376.38
823.728	59129.38
823.979	59277.38
824.231	59369.38
824.482	59199.38
824.734	59443.38
824.985	59297.38
825.236	59253.38
825.487	59433.38
825.739	59107.38
825.99	58926.38
826.241	58712.38
826.492	58508.38
826.743	58185.38
826.994	57974.38
827.245	57718.38
827.496	57764.38
827.747	57737.38
827.997	57602.38
828.248	57898.38
828.499	57827.38
828.75	57934.38
829	57944.38
829.251	57850.38
829.501	57877.38
829.752	57872.38
830.002	57476.38
830.253	57107.38
830.503	56951.38
830.753	56556.38
831.004	56293.38
831.254	55798.38
831.504	55829.38
831.754	55832.38
832.004	55785.38
832.254	55679.38
832.504	55806.38
832.754	55873.38
833.004	55866.38
833.254	55718.38
833.504	55846.38
833.754	55541.38
834.003	55293.38
834.253	55135.38
834.503	55046.38
834.752	54488.38
835.002	54242.38
835.252	54186.38
835.501	54051.38
835.75	53843.38
836	53914.38
836.249	53924.38
836.499	53931.38
836.748	53884.38
836.997	53975.38
837.246	54159.38
837.495	54437.38
837.744	54954.38
837.993	55724.38
838.242	56256.38
838.491	56017.38
838.74	55209.38
838.989	54232.38
839.238	53391.38
839.487	52965.38
839.736	52500.38
839.984	52247.38
840.233	51987.38
840.482	51654.38
840.73	51627.38
840.979	51446.38
841.227	51319.38
841.476	51153.38
841.724	51103.38
841.972	51044.38
842.221	50925.38
842.469	50602.38
842.717	50447.38
842.965	50179.38
843.213	50107.38
843.461	49818.38
843.71	49793.38
843.958	49607.38
844.205	49529.38
844.453	49400.38
844.701	49180.38
844.949	49411.38
845.197	49249.38
845.445	49406.38
845.692	49548.38
845.94	49498.38
846.188	49540.38
846.435	49427.38
846.683	49265.38
846.93	49057.38
847.178	48897.38
847.425	48511.38
847.672	48282.38
847.92	47933.38
848.167	47223.38
848.414	46960.38
848.661	46776.38
848.908	46583.38
849.155	46440.38
849.402	46413.38
849.649	46691.38
849.896	46895.38
850.143	47202.38
850.39	47516.38
850.637	47429.38
850.884	47355.38
851.131	47236.38
851.377	47181.38
851.624	46891.38
851.87	46831.38
852.117	46633.38
852.364	46424.38
852.61	46333.38
852.856	46259.38
853.103	45913.38
853.349	45894.38
853.595	45595.38
853.842	45420.38
854.088	45259.38
854.334	45266.38
854.58	45269.38
854.826	44783.38
855.072	44610.38
855.318	44270.38
855.564	43762.38
855.81	43543.38
856.056	43307.38
856.302	43010.38
856.548	42578.38
856.793	42319.38
857.039	42218.38
857.285	41999.38
857.53	41928.38
857.776	42002.38
858.021	42073.38
858.267	42268.38
858.512	42426.38
858.758	42510.38
859.003	42701.38
859.248	42506.38
859.493	42360.38
859.739	42291.38
859.984	42206.38
860.229	42018.38
860.474	41723.38
860.719	41584.38
860.964	41375.38
861.209	41031.38
861.454	40797.38
861.699	40421.38
861.943	40581.38
862.188	40247.38
862.433	40186.38
862.678	39975.38
862.922	39892.38
863.167	39905.38
863.411	39768.38
863.656	39532.38
863.9	39570.38
864.145	39493.38
864.389	39180.38
864.634	39145.38
864.878	39109.38
865.122	38956.38
865.366	38630.38
865.61	38716.38
865.855	38598.38
866.099	38485.38
866.343	38466.38
866.587	38389.38
866.831	38360.38
867.074	38498.38
867.318	38598.38
867.562	38488.38
867.806	38611.38
868.05	38346.38
868.293	38341.38
868.537	38208.38
868.78	37976.38
869.024	37719.38
869.267	37459.38
869.511	37334.38
869.754	37125.38
869.998	36776.38
870.241	36326.38
870.484	35978.38
870.728	35955.38
870.971	35572.38
871.214	35465.38
871.457	35508.38
871.7	35432.38
871.943	35648.38
872.186	35611.38
872.429	35432.38
872.672	35613.38
872.915	35465.38
873.158	35507.38
873.4	35384.38
873.643	35233.38
873.886	35244.38
874.128	35006.38
874.371	35054.38
874.613	35068.38
874.856	34778.38
875.098	34648.38
875.341	34699.38
875.583	34600.38
875.825	34447.38
876.068	34343.38
876.31	34077.38
876.552	33751.38
876.794	33516.38
877.036	33271.38
877.278	32965.38
877.52	32983.38
877.762	32709.38
878.004	32637.38
878.246	32691.38
878.488	32639.38
878.73	32625.38
878.972	32608.38
879.213	32480.38
879.455	32576.38
879.697	32501.38
879.938	32247.38
880.18	32298.38
880.421	32181.38
880.663	32317.38
880.904	32389.38
881.145	32413.38
881.387	32454.38
881.628	32537.38
881.869	32213.38
882.11	32091.38
882.352	31979.38
882.593	31790.38
882.834	31747.38
883.075	31672.38
883.316	31465.38
883.557	31383.38
883.797	31162.38
884.038	30902.38
884.279	30619.38
884.52	30219.38
884.761	30047.38
885.001	29680.38
885.242	29333.38
885.482	29247.38
885.723	29265.38
885.963	28992.38
886.204	28948.38
886.444	28866.38
886.685	28660.38
886.925	28491.38
887.165	28391.38
887.405	28166.38
887.646	28149.38
887.886	28059.38
888.126	28135.38
888.366	28110.38
888.606	28078.38
888.846	28297.38
889.086	28243.38
889.326	28365.38
889.565	28123.38
889.805	28184.38
890.045	28203.38
890.285	27956.38
890.524	27960.38
890.764	27920.38
891.003	27670.38
891.243	27324.38
891.482	27019.38
891.722	26898.38
891.961	26732.38
892.201	26573.38
892.44	26491.38
892.679	26376.38
892.918	26343.38
893.158	26234.38
893.397	26222.38
893.636	26044.38
893.875	26037.38
894.114	25834.38
894.353	25781.38
894.592	25716.38
894.831	25700.38
895.069	25433.38
895.308	25322.38
895.547	25150.38
895.786	24963.38
896.024	25039.38
896.263	25012.38
896.501	24796.38
896.74	24752.38
896.978	24821.38
897.217	24679.38
897.455	24680.38
897.694	24630.38
897.932	24405.38
898.17	24497.38
898.408	24334.38
898.646	24136.38
898.885	24117.38
899.123	24073.38
899.361	23788.38
899.599	23753.38
899.837	23525.38
900.075	23464.38
900.312	23317.38
900.55	23059.38
900.788	22841.38
901.026	22647.38
901.263	22516.38
901.501	22358.38
901.739	22118.38
901.976	22074.38
902.214	21927.38
902.451	21827.38
902.689	21808.38
902.926	21787.38
903.163	21765.38
903.401	21787.38
903.638	21763.38
903.875	21665.38
904.112	21655.38
904.349	21677.38
904.586	21676.38
904.823	21496.38
905.06	21496.38
905.297	21251.38
905.534	21171.38
905.771	20956.38
906.008	20849.38
906.245	20740.38
906.481	20548.38
906.718	20554.38
906.955	20442.38
907.191	20383.38
907.428	20340.38
907.664	20183.38
907.901	20165.38
908.137	20081.38
908.374	19830.38
908.61	19815.38
908.846	19707.38
909.083	19603.38
909.319	19532.38
909.555	19399.38
909.791	19214.38
910.027	19073.38
910.263	19043.38
910.499	18846.38
910.735	18684.38
910.971	18660.38
911.207	18387.38
911.443	18369.38
911.678	18199.38
911.914	18204.38
912.15	18150.38
912.385	18141.38
912.621	18083.38
912.857	18031.38
913.092	18121.38
913.328	18024.38
913.563	18000.38
913.798	17992.38
914.034	17952.38
914.269	17987.38
914.504	17884.38
914.739	17798.38
914.975	17665.38
915.21	17586.38
915.445	17539.38
915.68	17329.38
915.915	17181.38
916.15	16947.38
916.384	16713.38
916.619	16622.38
916.854	16561.38
917.089	16475.38
917.324	16345.38
917.558	16249.38
917.793	16123.38
918.028	16035.38
918.262	16042.38
918.497	15966.38
918.731	15945.38
918.965	16047.38
919.2	15956.38
919.434	15877.38
919.668	15870.38
919.903	15781.38
920.137	15767.38
920.371	15744.38
920.605	15649.38
920.839	15465.38
921.073	15368.38
921.307	15255.38
921.541	15153.38
921.775	15013.38
922.009	15005.38
922.243	15014.38
922.476	14932.38
922.71	14987.38
922.944	15045.38
923.177	14964.38
923.411	14887.38
923.644	14922.38
923.878	14830.38
924.111	14702.38
924.345	14686.38
924.578	14660.38
924.811	14585.38
925.045	14494.38
925.278	14358.38
925.511	14284.38
925.744	14109.38
925.977	14128.38
926.21	14013.38
926.443	13910.38
926.676	13732.38
926.909	13633.38
927.142	13573.38
927.375	13479.38
927.608	13385.38
927.841	13319.38
928.073	13294.38
928.306	13249.38
928.539	13230.38
928.771	13239.38
929.004	13296.38
929.236	13179.38
929.469	13162.38
929.701	13207.38
929.933	13234.38
930.166	13164.38
930.398	13194.38
930.63	13104.38
930.862	13057.38
931.094	13075.38
931.327	13029.38
931.559	12860.38
931.791	12803.38
932.023	12716.38
932.255	12744.38
932.486	12473.38
932.718	12438.38
932.95	12367.38
933.182	12361.38
933.413	12269.38
933.645	12251.38
933.877	12248.38
934.108	12169.38
934.34	12152.38
934.571	11973.38
934.803	12004.38
935.034	11879.38
935.265	11895.38
935.497	11846.38
935.728	11822.38
935.959	11792.38
936.19	11775.38
936.422	11672.38
936.653	11644.38
936.884	11537.38
937.115	11463.38
937.346	11482.38
937.577	11370.38
937.807	11308.38
938.038	11271.38
938.269	11253.38
938.5	11164.38
938.73	11181.38
938.961	11201.38
939.192	11162.38
939.422	11179.38
939.653	11080.38
939.883	11052.38
940.114	11130.38
940.344	11026.38
940.574	11002.38
940.805	10924.38
941.035	10858.38
941.265	10846.38
941.495	10709.38
941.726	10694.38
941.956	10582.38
942.186	10543.38
942.416	10490.38
942.646	10267.38
942.876	10301.38
943.105	10227.38
943.335	10098.38
943.565	10086.38
943.795	9927.38
944.024	9883.38
944.254	9745.38
944.484	9832.38
944.713	9734.38
944.943	9758.38
945.172	9684.38
945.402	9617.38
945.631	9766.38
945.86	9622.38
946.09	9619.38
946.319	9639.38
946.548	9557.38
946.777	9617.38
947.006	9488.38
947.235	9508.38
947.465	9525.38
947.694	9355.38
947.922	9411.38
948.151	9248.38
948.38	9232.38
948.609	9175.38
948.838	9041.38
949.067	9025.38
949.295	8963.38
949.524	8894.38
949.752	8876.38
949.981	8831.38
950.21	8783.38
950.438	8828.38
950.666	8694.38
950.895	8660.38
951.123	8510.38
951.351	8584.38
951.58	8456.38
951.808	8415.38
952.036	8479.38
952.264	8407.38
952.492	8266.38
952.72	8329.38
952.948	8253.38
953.176	8147.38
953.404	8077.38
953.632	8065.38
953.86	8023.38
954.088	7986.38
954.315	7876.38
954.543	7822.38
954.771	7797.38
954.998	7751.38
955.226	7759.38
955.453	7712.38
955.681	7699.38
955.908	7669.38
956.135	7608.38
956.363	7640.38
956.59	7596.38
956.817	7588.38
957.045	7587.38
957.272	7540.38
957.499	7532.38
957.726	7429.38
957.953	7437.38
958.18	7449.38
958.407	7350.38
958.634	7347.38
958.861	7291.38
959.087	7261.38
959.314	7182.38
959.541	7125.38
959.767	7056.38
959.994	7048.38
960.221	7020.38
960.447	6911.38
960.674	6892.38
960.9	6812.38
961.127	6780.38
961.353	6677.38
961.579	6684.38
961.806	6680.38
962.032	6679.38
962.258	6578.38
962.484	6505.38
962.71	6578.38
962.936	6592.38
963.162	6554.38
963.388	6522.38
963.614	6535.38
963.84	6403.38
964.066	6452.38
964.292	6404.38
964.518	6386.38
964.743	6359.38
964.969	6369.38
965.195	6324.38
965.42	6243.38
965.646	6280.38
965.871	6196.38
966.097	6200.38
966.322	6230.38
966.547	6191.38
966.773	6141.38
966.998	6071.38
967.223	6121.38
967.448	6058.38
967.674	5998.38
967.899	5949.38
968.124	5885.38
968.349	5894.38
968.574	5860.38
968.799	5786.38
969.024	5847.38
969.248	5734.38
969.473	5751.38
969.698	5741.38
969.923	5632.38
970.147	5636.38
970.372	5604.38
970.596	5530.38
970.821	5541.38
971.046	5495.38
971.27	5533.38
971.494	5471.38
971.719	5339.38
971.943	5326.38
972.167	5354.38
972.392	5311.38
972.616	5269.38
972.84	5220.38
973.064	5164.38
973.288	5203.38
973.512	5167.38
973.736	5158.38
973.96	5127.38
974.184	5090.38
974.408	5099.38
974.631	5057.38
974.855	5080.38
975.079	4976.38
975.303	5009.38
975.526	5016.38
975.75	5008.38
975.973	4960.38
976.197	4918.38
976.42	4876.38
976.644	4911.38
976.867	4861.38
977.09	4839.38
977.313	4837.38
977.537	4770.38
977.76	4737.38
977.983	4727.38
978.206	4659.38
978.429	4597.38
978.652	4644.38
978.875	4601.38
979.098	4559.38
979.321	4512.38
979.544	4461.38
979.767	4444.38
979.989	4444.38
980.212	4451.38
980.435	4424.38
980.657	4327.38
980.88	4308.38
981.102	4298.38
981.325	4302.38
981.547	4248.38
981.77	4215.38
981.992	4208.38
982.214	4190.38
982.437	4217.38
982.659	4196.38
982.881	4194.38
983.103	4136.38
983.325	4130.38
983.547	4088.38
983.769	4124.38
983.991	4059.38
984.213	4044.38
984.435	4052.38
984.657	4025.38
984.879	3992.38
985.1	3978.38
985.322	3932.38
985.544	3934.38
985.765	3926.38
985.987	3923.38
986.208	3911.38
986.43	3879.38
986.651	3867.38
986.873	3831.38
987.094	3795.38
987.315	3753.38
987.536	3739.38
987.758	3736.38
987.979	3684.38
988.2	3709.38
988.421	3674.38
988.642	3633.38
988.863	3607.38
989.084	3602.38
989.305	3556.38
989.526	3527.38
989.747	3533.38
989.967	3511.38
990.188	3466.38
990.409	3424.38
990.629	3410.38
990.85	3402.38
991.071	3396.38
991.291	3354.38
991.512	3319.38
991.732	3335.38
991.952	3348.38
992.173	3282.38
992.393	3351.38
992.613	3287.38
992.834	3318.38
993.054	3254.38
993.274	3271.38
993.494	3224.38
993.714	3251.38
993.934	3208.38
994.154	3234.38
994.374	3212.38
994.594	3163.38
994.813	3172.38
995.033	3184.38
995.253	3164.38
995.473	3150.38
995.692	3116.38
995.912	3109.38
996.131	3066.38
996.351	3067.38
996.57	3067.38
996.79	3008.38
997.009	2989.38
997.228	2973.38
997.448	2935.38
997.667	2902.38
997.886	2889.38
998.105	2898.38
998.325	2817.38
998.544	2842.38
998.763	2808.38
998.982	2770.38
999.201	2782.38
999.419	2717.38
999.638	2727.38
999.857	2713.38
1000.076	2707.38
1000.295	2692.38
1000.513	2716.38
1000.732	2681.38
1000.95	2663.38
1001.169	2683.38
1001.388	2642.38
1001.606	2628.38
1001.824	2619.38
1002.043	2597.38
1002.261	2613.38
1002.479	2601.38
1002.698	2570.38
1002.916	2554.38
1003.134	2575.38
1003.352	2538.38
1003.57	2567.38
1003.788	2562.38
1004.006	2527.38
1004.224	2523.38
1004.442	2541.38
1004.66	2498.38
1004.878	2521.38
1005.095	2476.38
1005.313	2483.38
1005.531	2452.38
1005.748	2454.38
1005.966	2546.38
1006.184	2432.38
1006.401	2462.38
1006.618	2470.38
1006.836	2426.38
1007.053	2447.38
1007.271	2404.38
1007.488	2396.38
1007.705	2456.38
1007.922	2420.38
1008.139	2411.38
1008.357	2439.38
1008.574	2453.38
1008.791	2475.38
1009.008	2529.38
1009.225	2506.38
1009.441	2567.38
1009.658	2597.38
1009.875	2584.38
1010.092	2568.38
1010.309	2550.38
1010.525	2549.38
1010.742	2494.38
1010.958	2436.38
1011.175	2461.38
1011.391	2437.38
1011.608	2417.38
1011.824	2399.38
1012.041	2367.38
1012.257	2352.38
1012.473	2339.38
1012.689	2321.38
1012.906	2276.38
1013.122	2282.38
1013.338	2277.38
1013.554	2287.38
1013.77	2304.38
1013.986	2313.38
1014.202	2353.38
1014.418	2401.38
1014.634	2469.38
1014.849	2510.38
1015.065	2575.38
1015.281	2532.38
1015.496	2552.38
1015.712	2496.38
1015.928	2411.38
1016.143	2399.38
1016.359	2357.38
1016.574	2272.38
1016.79	2215.38
1017.005	2217.38
1017.22	2144.38
1017.435	2097.38
1017.651	2092.38
1017.866	1993.38
1018.081	1977.38
1018.296	1911.38
1018.511	1911.38
1018.726	1939.38
1018.941	1895.38
1019.156	1870.38
1019.371	1863.38
1019.586	1892.38
1019.801	1845.38
1020.015	1825.38
1020.23	1849.38
1020.445	1785.38
1020.659	1785.38
1020.874	1770.38
1021.088	1718.38
1021.303	1700.38
1021.517	1657.38
1021.732	1604.38
1021.946	1615.38
1022.16	1615.38
1022.375	1597.38
1022.589	1550.38
1022.803	1490.38
1023.017	1491.38
1023.231	1439.38
1023.445	1455.38
1023.659	1384.38
1023.873	1370.38
1024.087	1339.38
1024.301	1319.38
1024.515	1320.38
1024.729	1287.38
1024.942	1259.38
1025.156	1264.38
1025.37	1222.38
1025.583	1185.38
1025.797	1158.38
1026.01	1149.38
1026.224	1115.38
1026.437	1090.38
1026.651	1059.38
1026.864	1040.38
1027.077	1013.38
1027.291	999.38
1027.504	968.38
1027.717	937.38
1027.93	909.38
1028.143	894.38
1028.356	869.38
1028.569	824.38
1028.782	775.38
1028.995	0.38
1029.208	-2.62
1029.421	-3.62
1029.634	-2.62
