Data from QEP037381__162__15-12-17-577.txt Node

Date: Mon Mar 14 15:12:17 EDT 2022
User: dcclab
Spectrometer: QEP03738
Trigger mode: 4
Integration Time (sec): 1.500000E0
Scans to average: 1
Electric dark correction enabled: true
Nonlinearity correction enabled: false
Boxcar width: 0
XAxis mode: Wavelengths
Number of Pixels in Spectrum: 1044
>>>>>Begin Spectral Data<<<<<
783.959	13
784.218	-2
784.476	-1
784.734	-6
784.992	236
785.251	243
785.509	238
785.767	241
786.025	238
786.283	232
786.541	241
786.798	245
787.056	237
787.314	229
787.572	244
787.83	249
788.087	261
788.345	260
788.602	266
788.86	261
789.117	258
789.375	269
789.632	272
789.89	269
790.147	281
790.404	288
790.661	296
790.919	321
791.176	288
791.433	307
791.69	314
791.947	321
792.204	321
792.461	345
792.718	356
792.974	356
793.231	372
793.488	395
793.745	415
794.001	427
794.258	447
794.514	479
794.771	492
795.027	532
795.284	542
795.54	587
795.797	613
796.053	698
796.309	749
796.565	840
796.822	941
797.078	1070
797.334	1248
797.59	1522
797.846	1869
798.102	2468
798.358	3379
798.614	4874
798.869	7094
799.125	10581
799.381	15486
799.637	22045
799.892	30004
800.148	38791
800.403	47115
800.659	54437
800.914	60092
801.17	63611
801.425	66074
801.68	67745
801.936	69247
802.191	70657
802.446	72085
802.701	73394
802.957	74854
803.212	76546
803.467	77762
803.722	79258
803.977	80680
804.232	82071
804.486	83606
804.741	84893
804.996	86302
805.251	87646
805.505	89260
805.76	90497
806.015	91854
806.269	92645
806.524	93778
806.778	94432
807.033	95153
807.287	96052
807.541	97085
807.796	98467
808.05	99266
808.304	99993
808.558	100614
808.812	101164
809.066	101650
809.32	102221
809.574	102989
809.828	103397
810.082	103832
810.336	104670
810.59	105585
810.844	106968
811.097	107934
811.351	109134
811.605	110940
811.858	112531
812.112	114062
812.365	115930
812.619	117322
812.872	118903
813.126	120491
813.379	121682
813.632	123065
813.885	124341
814.139	126058
814.392	127668
814.645	129602
814.898	131928
815.151	134098
815.404	136577
815.657	138683
815.91	140474
816.163	141948
816.416	143174
816.668	144048
816.921	144886
817.174	145273
817.426	145233
817.679	144807
817.931	144298
818.184	144017
818.436	143954
818.689	143948
818.941	143936
819.194	144481
819.446	144700
819.698	145290
819.95	145713
820.202	146209
820.455	146276
820.707	146440
820.959	146543
821.211	146262
821.462	145870
821.714	145411
821.966	144744
822.218	144203
822.47	143225
822.722	142254
822.973	141597
823.225	141138
823.476	140962
823.728	140848
823.979	140512
824.231	140334
824.482	140619
824.734	140037
824.985	140314
825.236	140078
825.487	139340
825.739	138611
825.99	137992
826.241	137064
826.492	136713
826.743	135867
826.994	135396
827.245	134490
827.496	133890
827.747	133494
827.997	133816
828.248	133392
828.499	133424
828.75	133273
829	133284
829.251	132958
829.501	132760
829.752	132088
830.002	131251
830.253	130172
830.503	129381
830.753	128236
831.004	127543
831.254	126645
831.504	126725
831.754	126164
832.004	125857
832.254	125679
832.504	125420
832.754	125773
833.004	125423
833.254	125066
833.504	124125
833.754	123904
834.003	123349
834.253	122627
834.503	121856
834.752	121343
835.002	120310
835.252	119790
835.501	119056
835.75	118589
836	118521
836.249	117902
836.499	117981
836.748	117715
836.997	117458
837.246	117372
837.495	117419
837.744	117620
837.993	117658
838.242	117414
838.491	117219
838.74	116233
838.989	115152
839.238	114382
839.487	113805
839.736	113033
839.984	112428
840.233	111738
840.482	111390
840.73	110985
840.979	110469
841.227	109799
841.476	109256
841.724	109045
841.972	108766
842.221	108437
842.469	107939
842.717	107395
842.965	106907
843.213	106535
843.461	106128
843.71	105671
843.958	104993
844.205	104599
844.453	104337
844.701	104229
844.949	103827
845.197	103806
845.445	103807
845.692	104046
845.94	103792
846.188	103777
846.435	103496
846.683	103134
846.93	102484
847.178	102085
847.425	101018
847.672	100127
847.92	99549
848.167	98210
848.414	97232
848.661	96902
848.908	95943
849.155	95655
849.402	95535
849.649	95500
849.896	95549
850.143	95872
850.39	96345
850.637	96372
850.884	95855
851.131	95963
851.377	95457
851.624	94996
851.87	94451
852.117	94193
852.364	93482
852.61	92948
852.856	92558
853.103	92060
853.349	91606
853.595	91133
853.842	90443
854.088	90509
854.334	90747
854.58	90413
854.826	90031
855.072	89364
855.318	88768
855.564	87903
855.81	87018
856.056	86341
856.302	85903
856.548	84887
856.793	84592
857.039	84252
857.285	83860
857.53	83693
857.776	83813
858.021	83788
858.267	84167
858.512	84093
858.758	84193
859.003	84333
859.248	84344
859.493	84032
859.739	84042
859.984	83360
860.229	82907
860.474	82526
860.719	81733
860.964	81512
861.209	80829
861.454	80439
861.699	79849
861.943	79233
862.188	78948
862.433	78381
862.678	78094
862.922	78136
863.167	77992
863.411	77537
863.656	76998
863.9	77041
864.145	76911
864.389	76334
864.634	75835
864.878	75629
865.122	75292
865.366	75141
865.61	74858
865.855	74720
866.099	74220
866.343	73993
866.587	73739
866.831	73801
867.074	73722
867.318	73737
867.562	73722
867.806	73453
868.05	73280
868.293	73209
868.537	72857
868.78	72617
869.024	72249
869.267	71651
869.511	71198
869.754	70453
869.998	69611
870.241	69106
870.484	68749
870.728	68250
870.971	67926
871.214	67556
871.457	67374
871.7	67063
871.943	67253
872.186	67278
872.429	67152
872.672	67459
872.915	67079
873.158	67105
873.4	66780
873.643	66588
873.886	66324
874.128	66026
874.371	65846
874.613	65544
874.856	65423
875.098	65253
875.341	65057
875.583	64710
875.825	64722
876.068	64100
876.31	63695
876.552	63088
876.794	62642
877.036	62131
877.278	61473
877.52	61510
877.762	60958
878.004	60697
878.246	60486
878.488	60452
878.73	60183
878.972	60053
879.213	60102
879.455	60031
879.697	59781
879.938	59465
880.18	59389
880.421	58935
880.663	58783
880.904	58614
881.145	58422
881.387	58504
881.628	58444
881.869	58155
882.11	58276
882.352	58097
882.593	57813
882.834	57664
883.075	57298
883.316	57258
883.557	57077
883.797	56824
884.038	56349
884.279	55475
884.52	55121
884.761	54531
885.001	54312
885.242	53803
885.482	53241
885.723	53059
885.963	52767
886.204	52682
886.444	52273
886.685	51994
886.925	51839
887.165	51552
887.405	51265
887.646	51229
887.886	51006
888.126	50969
888.366	50920
888.606	50901
888.846	51042
889.086	51083
889.326	51010
889.565	50887
889.805	50827
890.045	50740
890.285	50381
890.524	50383
890.764	50111
891.003	49758
891.243	49049
891.482	48542
891.722	48196
891.961	47757
892.201	47528
892.44	47366
892.679	47141
892.918	46942
893.158	46731
893.397	46581
893.636	46452
893.875	46135
894.114	45975
894.353	45841
894.592	45659
894.831	45472
895.069	45251
895.308	44850
895.547	44712
895.786	44512
896.024	44144
896.263	43984
896.501	43911
896.74	43679
896.978	43793
897.217	43620
897.455	43429
897.694	43439
897.932	43323
898.17	43003
898.408	42923
898.646	42749
898.885	42319
899.123	42325
899.361	41962
899.599	41804
899.837	41467
900.075	41009
900.312	40936
900.55	40575
900.788	40296
901.026	39645
901.263	39308
901.501	39147
901.739	38947
901.976	38598
902.214	38409
902.451	38271
902.689	38186
902.926	38127
903.163	37976
903.401	37973
903.638	38109
903.875	37889
904.112	37952
904.349	37656
904.586	37743
904.823	37611
905.06	37219
905.297	36998
905.534	36634
905.771	36310
906.008	36234
906.245	35869
906.481	35670
906.718	35518
906.955	35314
907.191	35116
907.428	34962
907.664	34893
907.901	34625
908.137	34568
908.374	34425
908.61	34261
908.846	33998
909.083	33850
909.319	33657
909.555	33276
909.791	33126
910.027	32877
910.263	32585
910.499	32308
910.735	31966
910.971	31822
911.207	31543
911.443	31390
911.678	31203
911.914	31162
912.15	31117
912.385	31053
912.621	30895
912.857	30909
913.092	30762
913.328	30701
913.563	30661
913.798	30622
914.034	30464
914.269	30464
914.504	30331
914.739	30176
914.975	29928
915.21	29762
915.445	29420
915.68	29266
915.915	28899
916.15	28465
916.384	28198
916.619	28050
916.854	27745
917.089	27738
917.324	27395
917.558	27241
917.793	27049
918.028	26836
918.262	26816
918.497	26731
918.731	26773
918.965	26805
919.2	26511
919.434	26621
919.668	26508
919.903	26368
920.137	26271
920.371	26138
920.605	25921
920.839	25691
921.073	25544
921.307	25495
921.541	25118
921.775	24995
922.009	24916
922.243	24774
922.476	24737
922.71	24777
922.944	24602
923.177	24514
923.411	24529
923.644	24533
923.878	24359
924.111	24219
924.345	24189
924.578	24031
924.811	23777
925.045	23695
925.278	23494
925.511	23352
925.744	23130
925.977	22980
926.21	22842
926.443	22483
926.676	22457
926.909	22021
927.142	22075
927.375	21870
927.608	21731
927.841	21628
928.073	21496
928.306	21530
928.539	21404
928.771	21355
929.004	21400
929.236	21357
929.469	21317
929.701	21394
929.933	21378
930.166	21307
930.398	21175
930.63	21175
930.862	21119
931.094	21067
931.327	20837
931.559	20598
931.791	20386
932.023	20410
932.255	20239
932.486	20034
932.718	19921
932.95	19781
933.182	19607
933.413	19620
933.645	19542
933.877	19374
934.108	19362
934.34	19246
934.571	19178
934.803	18984
935.034	18909
935.265	18771
935.497	18838
935.728	18789
935.959	18735
936.19	18435
936.422	18430
936.653	18324
936.884	18285
937.115	18205
937.346	17965
937.577	17802
937.807	17728
938.038	17703
938.269	17617
938.5	17606
938.73	17518
938.961	17471
939.192	17426
939.422	17386
939.653	17363
939.883	17321
940.114	17231
940.344	17135
940.574	17176
940.805	17091
941.035	16905
941.265	16835
941.495	16701
941.726	16503
941.956	16388
942.186	16274
942.416	16050
942.646	16125
942.876	15809
943.105	15685
943.335	15622
943.565	15501
943.795	15309
944.024	15292
944.254	15186
944.484	15041
944.713	15068
944.943	14899
945.172	14844
945.402	14795
945.631	14865
945.86	14736
946.09	14720
946.319	14747
946.548	14607
946.777	14631
947.006	14577
947.235	14459
947.465	14422
947.694	14271
947.922	14139
948.151	13973
948.38	13968
948.609	13865
948.838	13770
949.067	13701
949.295	13546
949.524	13563
949.752	13430
949.981	13313
950.21	13216
950.438	13107
950.666	13120
950.895	12941
951.123	12862
951.351	12819
951.58	12681
951.808	12608
952.036	12582
952.264	12508
952.492	12380
952.72	12472
952.948	12359
953.176	12240
953.404	12061
953.632	12053
953.86	11928
954.088	11775
954.315	11730
954.543	11688
954.771	11618
954.998	11586
955.226	11486
955.453	11470
955.681	11390
955.908	11320
956.135	11296
956.363	11275
956.59	11295
956.817	11209
957.045	11186
957.272	11179
957.499	11124
957.726	11053
957.953	10962
958.18	10878
958.407	10865
958.634	10711
958.861	10744
959.087	10637
959.314	10596
959.541	10482
959.767	10353
959.994	10375
960.221	10281
960.447	10092
960.674	10077
960.9	9947
961.127	9863
961.353	9883
961.579	9731
961.806	9739
962.032	9661
962.258	9631
962.484	9604
962.71	9540
962.936	9498
963.162	9490
963.388	9507
963.614	9400
963.84	9436
964.066	9372
964.292	9363
964.518	9232
964.743	9263
964.969	9175
965.195	9104
965.42	9033
965.646	9030
965.871	8999
966.097	8942
966.322	8910
966.547	8813
966.773	8776
966.998	8739
967.223	8685
967.448	8648
967.674	8613
967.899	8515
968.124	8465
968.349	8415
968.574	8419
968.799	8408
969.024	8309
969.248	8215
969.473	8232
969.698	8152
969.923	8049
970.147	8023
970.372	8012
970.596	7867
970.821	7863
971.046	7837
971.27	7739
971.494	7716
971.719	7649
971.943	7646
972.167	7556
972.392	7473
972.616	7502
972.84	7391
973.064	7332
973.288	7326
973.512	7340
973.736	7330
973.96	7253
974.184	7204
974.408	7202
974.631	7110
974.855	7151
975.079	7064
975.303	7065
975.526	7016
975.75	6990
975.973	6967
976.197	6932
976.42	6965
976.644	6885
976.867	6780
977.09	6808
977.313	6757
977.537	6668
977.76	6619
977.983	6586
978.206	6518
978.429	6426
978.652	6444
978.875	6358
979.098	6305
979.321	6360
979.544	6271
979.767	6170
979.989	6120
980.212	6126
980.435	6076
980.657	5975
980.88	6031
981.102	5953
981.325	5968
981.547	5904
981.77	5860
981.992	5800
982.214	5835
982.437	5816
982.659	5781
982.881	5755
983.103	5718
983.325	5690
983.547	5645
983.769	5669
983.991	5622
984.213	5562
984.435	5556
984.657	5522
984.879	5467
985.1	5465
985.322	5444
985.544	5381
985.765	5429
985.987	5343
986.208	5309
986.43	5256
986.651	5195
986.873	5264
987.094	5213
987.315	5173
987.536	5107
987.758	5097
987.979	4997
988.2	4998
988.421	4959
988.642	4909
988.863	4906
989.084	4833
989.305	4815
989.526	4805
989.747	4755
989.967	4710
990.188	4712
990.409	4637
990.629	4642
990.85	4555
991.071	4597
991.291	4529
991.512	4544
991.732	4527
991.952	4447
992.173	4408
992.393	4456
992.613	4430
992.834	4417
993.054	4402
993.274	4384
993.494	4332
993.714	4303
993.934	4313
994.154	4281
994.374	4236
994.594	4257
994.813	4233
995.033	4251
995.253	4158
995.473	4106
995.692	4119
995.912	4142
996.131	4065
996.351	4023
996.57	4026
996.79	3962
997.009	3917
997.228	3907
997.448	3825
997.667	3837
997.886	3774
998.105	3756
998.325	3698
998.544	3722
998.763	3664
998.982	3608
999.201	3612
999.419	3566
999.638	3567
999.857	3514
1000.076	3581
1000.295	3482
1000.513	3497
1000.732	3497
1000.95	3444
1001.169	3468
1001.388	3416
1001.606	3441
1001.824	3410
1002.043	3369
1002.261	3327
1002.479	3383
1002.698	3328
1002.916	3281
1003.134	3308
1003.352	3265
1003.57	3243
1003.788	3207
1004.006	3244
1004.224	3203
1004.442	3174
1004.66	3145
1004.878	3153
1005.095	3108
1005.313	3123
1005.531	3090
1005.748	3105
1005.966	3095
1006.184	3060
1006.401	3035
1006.618	3019
1006.836	3019
1007.053	3003
1007.271	2986
1007.488	2918
1007.705	2962
1007.922	2911
1008.139	2927
1008.357	2951
1008.574	2913
1008.791	2923
1009.008	2919
1009.225	2931
1009.441	2954
1009.658	2927
1009.875	2915
1010.092	2927
1010.309	2857
1010.525	2850
1010.742	2831
1010.958	2789
1011.175	2771
1011.391	2759
1011.608	2731
1011.824	2703
1012.041	2668
1012.257	2640
1012.473	2637
1012.689	2595
1012.906	2622
1013.122	2571
1013.338	2568
1013.554	2547
1013.77	2578
1013.986	2546
1014.202	2566
1014.418	2628
1014.634	2638
1014.849	2655
1015.065	2684
1015.281	2668
1015.496	2643
1015.712	2612
1015.928	2556
1016.143	2554
1016.359	2524
1016.574	2484
1016.79	2407
1017.005	2409
1017.22	2334
1017.435	2320
1017.651	2261
1017.866	2206
1018.081	2204
1018.296	2159
1018.511	2123
1018.726	2152
1018.941	2111
1019.156	2088
1019.371	2072
1019.586	2087
1019.801	2010
1020.015	2040
1020.23	2041
1020.445	2006
1020.659	1986
1020.874	1940
1021.088	1910
1021.303	1914
1021.517	1903
1021.732	1824
1021.946	1832
1022.16	1826
1022.375	1783
1022.589	1749
1022.803	1743
1023.017	1728
1023.231	1681
1023.445	1668
1023.659	1640
1023.873	1609
1024.087	1544
1024.301	1535
1024.515	1504
1024.729	1486
1024.942	1466
1025.156	1439
1025.37	1433
1025.583	1370
1025.797	1341
1026.01	1350
1026.224	1307
1026.437	1296
1026.651	1236
1026.864	1205
1027.077	1194
1027.291	1140
1027.504	1116
1027.717	1092
1027.93	1050
1028.143	1026
1028.356	991
1028.569	942
1028.782	894
1028.995	-2
1029.208	-2
1029.421	1
1029.634	-1
