Data from QEP037381__199__15-14-22-040.txt Node

Date: Mon Mar 14 15:14:22 EDT 2022
User: dcclab
Spectrometer: QEP03738
Trigger mode: 4
Integration Time (sec): 1.500000E0
Scans to average: 1
Electric dark correction enabled: true
Nonlinearity correction enabled: false
Boxcar width: 0
XAxis mode: Wavelengths
Number of Pixels in Spectrum: 1044
>>>>>Begin Spectral Data<<<<<
783.959	11.25
784.218	2.25
784.476	-1.75
784.734	-5.75
784.992	289.25
785.251	274.25
785.509	280.25
785.767	297.25
786.025	299.25
786.283	284.25
786.541	299.25
786.798	301.25
787.056	296.25
787.314	299.25
787.572	312.25
787.83	304.25
788.087	323.25
788.345	312.25
788.602	323.25
788.86	330.25
789.117	323.25
789.375	322.25
789.632	336.25
789.89	334.25
790.147	353.25
790.404	349.25
790.661	374.25
790.919	387.25
791.176	373.25
791.433	391.25
791.69	406.25
791.947	413.25
792.204	405.25
792.461	443.25
792.718	439.25
792.974	469.25
793.231	478.25
793.488	496.25
793.745	518.25
794.001	552.25
794.258	576.25
794.514	593.25
794.771	638.25
795.027	675.25
795.284	710.25
795.54	774.25
795.797	812.25
796.053	896.25
796.309	977.25
796.565	1093.25
796.822	1218.25
797.078	1382.25
797.334	1618.25
797.59	1981.25
797.846	2462.25
798.102	3239.25
798.358	4424.25
798.614	6380.25
798.869	9291.25
799.125	13788.25
799.381	20388.25
799.637	28937.25
799.892	39373.25
800.148	50755.25
800.403	61869.25
800.659	71430.25
800.914	78824.25
801.17	84200.25
801.425	87552.25
801.68	89868.25
801.936	91642.25
802.191	93550.25
802.446	95353.25
802.701	97399.25
802.957	99334.25
803.212	101044.25
803.467	102733.25
803.722	104798.25
803.977	106508.25
804.232	108183.25
804.486	110469.25
804.741	111930.25
804.996	114014.25
805.251	116159.25
805.505	117467.25
805.76	119486.25
806.015	121000.25
806.269	122020.25
806.524	123593.25
806.778	124410.25
807.033	125023.25
807.287	126340.25
807.541	127764.25
807.796	129443.25
808.05	130560.25
808.304	131806.25
808.558	132011.25
808.812	132862.25
809.066	133526.25
809.32	134552.25
809.574	135019.25
809.828	135775.25
810.082	136616.25
810.336	137506.25
810.59	138481.25
810.844	139817.25
811.097	141636.25
811.351	143193.25
811.605	145175.25
811.858	147414.25
812.112	149311.25
812.365	151445.25
812.619	153534.25
812.872	155094.25
813.126	157256.25
813.379	158606.25
813.632	160627.25
813.885	162280.25
814.139	164472.25
814.392	166137.25
814.645	168414.25
814.898	171438.25
815.151	173798.25
815.404	176570.25
815.657	179202.25
815.91	181160.25
816.163	182945.25
816.416	184511.25
816.668	185002.25
816.921	185625.25
817.174	185964.25
817.426	186096.25
817.679	185831.25
817.931	185483.25
818.184	184984.25
818.436	184798.25
818.689	184675.25
818.941	184683.25
819.194	184993.25
819.446	185303.25
819.698	185644.25
819.95	186038.25
820.202	186386.25
820.455	186506.25
820.707	187078.25
820.959	187378.25
821.211	186721.25
821.462	186505.25
821.714	185764.25
821.966	184980.25
822.218	184267.25
822.47	183182.25
822.722	182223.25
822.973	181603.25
823.225	180827.25
823.476	180862.25
823.728	180370.25
823.979	180243.25
824.231	179991.25
824.482	179837.25
824.734	179359.25
824.985	179314.25
825.236	179325.25
825.487	178469.25
825.739	177624.25
825.99	176486.25
826.241	175971.25
826.492	174863.25
826.743	173976.25
826.994	173017.25
827.245	171983.25
827.496	171625.25
827.747	171080.25
827.997	170816.25
828.248	170739.25
828.499	170468.25
828.75	170679.25
829	170401.25
829.251	170026.25
829.501	169658.25
829.752	168810.25
830.002	167496.25
830.253	166202.25
830.503	165237.25
830.753	164153.25
831.004	162793.25
831.254	161641.25
831.504	161486.25
831.754	161120.25
832.004	160815.25
832.254	160371.25
832.504	160379.25
832.754	160040.25
833.004	159637.25
833.254	158870.25
833.504	158681.25
833.754	158019.25
834.003	156864.25
834.253	156602.25
834.503	155368.25
834.752	154321.25
835.002	153344.25
835.252	152328.25
835.501	151379.25
835.75	151118.25
836	150433.25
836.249	150370.25
836.499	149568.25
836.748	149437.25
836.997	149466.25
837.246	149462.25
837.495	149028.25
837.744	148655.25
837.993	148960.25
838.242	148717.25
838.491	147869.25
838.74	147017.25
838.989	145867.25
839.238	144918.25
839.487	143972.25
839.736	143298.25
839.984	142383.25
840.233	141744.25
840.482	140985.25
840.73	140436.25
840.979	139648.25
841.227	139138.25
841.476	138405.25
841.724	137961.25
841.972	137432.25
842.221	136792.25
842.469	136328.25
842.717	135588.25
842.965	135328.25
843.213	134658.25
843.461	133851.25
843.71	133223.25
843.958	132461.25
844.205	132095.25
844.453	132087.25
844.701	131444.25
844.949	131430.25
845.197	130957.25
845.445	130733.25
845.692	130815.25
845.94	130769.25
846.188	130613.25
846.435	130350.25
846.683	129789.25
846.93	129115.25
847.178	128462.25
847.425	127472.25
847.672	126530.25
847.92	125171.25
848.167	123899.25
848.414	122620.25
848.661	121246.25
848.908	120774.25
849.155	120363.25
849.402	120185.25
849.649	119817.25
849.896	120088.25
850.143	120401.25
850.39	120853.25
850.637	120920.25
850.884	120344.25
851.131	120163.25
851.377	120089.25
851.624	119465.25
851.87	118728.25
852.117	118123.25
852.364	117364.25
852.61	116617.25
852.856	116082.25
853.103	115421.25
853.349	114718.25
853.595	114366.25
853.842	113768.25
854.088	113605.25
854.334	113540.25
854.58	113380.25
854.826	112858.25
855.072	112135.25
855.318	111183.25
855.564	110411.25
855.81	109023.25
856.056	108321.25
856.302	106996.25
856.548	106572.25
856.793	105784.25
857.039	105277.25
857.285	104925.25
857.53	104660.25
857.776	105055.25
858.021	104975.25
858.267	105169.25
858.512	105171.25
858.758	105510.25
859.003	105747.25
859.248	105172.25
859.493	105196.25
859.739	104690.25
859.984	104560.25
860.229	103957.25
860.474	103210.25
860.719	102688.25
860.964	101666.25
861.209	101194.25
861.454	100267.25
861.699	99742.25
861.943	98946.25
862.188	98606.25
862.433	98226.25
862.678	97460.25
862.922	97446.25
863.167	97205.25
863.411	96754.25
863.656	96324.25
863.9	96067.25
864.145	95846.25
864.389	95206.25
864.634	94647.25
864.878	94120.25
865.122	93653.25
865.366	93934.25
865.61	93327.25
865.855	93233.25
866.099	92776.25
866.343	92360.25
866.587	91821.25
866.831	92014.25
867.074	91839.25
867.318	91548.25
867.562	91524.25
867.806	91682.25
868.05	91279.25
868.293	91082.25
868.537	90969.25
868.78	90394.25
869.024	90066.25
869.267	89332.25
869.511	88520.25
869.754	87712.25
869.998	86947.25
870.241	85740.25
870.484	85410.25
870.728	84774.25
870.971	84419.25
871.214	83944.25
871.457	83641.25
871.7	83538.25
871.943	83420.25
872.186	83354.25
872.429	83544.25
872.672	83644.25
872.915	83488.25
873.158	82875.25
873.4	83117.25
873.643	82791.25
873.886	82222.25
874.128	82187.25
874.371	82019.25
874.613	81737.25
874.856	81381.25
875.098	81194.25
875.341	80596.25
875.583	80244.25
875.825	80072.25
876.068	79759.25
876.31	79191.25
876.552	78526.25
876.794	77810.25
877.036	77353.25
877.278	76446.25
877.52	76254.25
877.762	75690.25
878.004	75545.25
878.246	75328.25
878.488	75007.25
878.73	75016.25
878.972	74834.25
879.213	74620.25
879.455	74558.25
879.697	74137.25
879.938	74034.25
880.18	73603.25
880.421	73365.25
880.663	73007.25
880.904	72793.25
881.145	72671.25
881.387	72689.25
881.628	72553.25
881.869	72208.25
882.11	72053.25
882.352	71850.25
882.593	71922.25
882.834	71665.25
883.075	71242.25
883.316	71083.25
883.557	70860.25
883.797	70327.25
884.038	69881.25
884.279	68993.25
884.52	68187.25
884.761	67786.25
885.001	67212.25
885.242	66741.25
885.482	66402.25
885.723	65897.25
885.963	65362.25
886.204	65331.25
886.444	64993.25
886.685	64591.25
886.925	64273.25
887.165	63856.25
887.405	63715.25
887.646	63701.25
887.886	63121.25
888.126	63191.25
888.366	63248.25
888.606	63115.25
888.846	63116.25
889.086	63445.25
889.326	63410.25
889.565	63172.25
889.805	63147.25
890.045	62784.25
890.285	62387.25
890.524	62396.25
890.764	62207.25
891.003	61620.25
891.243	60958.25
891.482	60313.25
891.722	59935.25
891.961	59439.25
892.201	59282.25
892.44	58763.25
892.679	58351.25
892.918	58281.25
893.158	58071.25
893.397	57935.25
893.636	57546.25
893.875	57414.25
894.114	57015.25
894.353	57032.25
894.592	56600.25
894.831	56204.25
895.069	56012.25
895.308	55482.25
895.547	55176.25
895.786	54969.25
896.024	54777.25
896.263	54685.25
896.501	54509.25
896.74	54409.25
896.978	54396.25
897.217	54123.25
897.455	53854.25
897.694	53869.25
897.932	53425.25
898.17	53477.25
898.408	53095.25
898.646	52887.25
898.885	52589.25
899.123	52336.25
899.361	52066.25
899.599	51658.25
899.837	51245.25
900.075	50988.25
900.312	50710.25
900.55	50193.25
900.788	49685.25
901.026	49226.25
901.263	48881.25
901.501	48540.25
901.739	48167.25
901.976	47773.25
902.214	47581.25
902.451	47553.25
902.689	47376.25
902.926	47256.25
903.163	47144.25
903.401	47017.25
903.638	47131.25
903.875	46987.25
904.112	46908.25
904.349	46852.25
904.586	46465.25
904.823	46393.25
905.06	46194.25
905.297	45723.25
905.534	45469.25
905.771	44861.25
906.008	44530.25
906.245	44478.25
906.481	44051.25
906.718	44079.25
906.955	43892.25
907.191	43621.25
907.428	43146.25
907.664	43038.25
907.901	42879.25
908.137	42692.25
908.374	42542.25
908.61	42306.25
908.846	42188.25
909.083	41938.25
909.319	41682.25
909.555	41416.25
909.791	40870.25
910.027	40503.25
910.263	40103.25
910.499	39948.25
910.735	39488.25
910.971	39139.25
911.207	38958.25
911.443	38858.25
911.678	38581.25
911.914	38396.25
912.15	38314.25
912.385	38189.25
912.621	38077.25
912.857	38007.25
913.092	37967.25
913.328	37915.25
913.563	37819.25
913.798	37803.25
914.034	37645.25
914.269	37617.25
914.504	37387.25
914.739	37195.25
914.975	37037.25
915.21	36663.25
915.445	36331.25
915.68	35963.25
915.915	35827.25
916.15	35389.25
916.384	35022.25
916.619	34479.25
916.854	34350.25
917.089	33988.25
917.324	33859.25
917.558	33500.25
917.793	33334.25
918.028	33014.25
918.262	33068.25
918.497	33023.25
918.731	32974.25
918.965	32830.25
919.2	32659.25
919.434	32624.25
919.668	32640.25
919.903	32448.25
920.137	32324.25
920.371	32109.25
920.605	31969.25
920.839	31656.25
921.073	31415.25
921.307	31221.25
921.541	30945.25
921.775	30855.25
922.009	30667.25
922.243	30492.25
922.476	30445.25
922.71	30458.25
922.944	30390.25
923.177	30145.25
923.411	30216.25
923.644	30183.25
923.878	30008.25
924.111	29853.25
924.345	29631.25
924.578	29373.25
924.811	29232.25
925.045	29100.25
925.278	28930.25
925.511	28555.25
925.744	28464.25
925.977	28165.25
926.21	27801.25
926.443	27667.25
926.676	27423.25
926.909	27339.25
927.142	27181.25
927.375	26840.25
927.608	26735.25
927.841	26430.25
928.073	26375.25
928.306	26391.25
928.539	26412.25
928.771	26332.25
929.004	26072.25
929.236	26202.25
929.469	26209.25
929.701	26114.25
929.933	26131.25
930.166	26071.25
930.398	25913.25
930.63	25923.25
930.862	25675.25
931.094	25624.25
931.327	25434.25
931.559	25337.25
931.791	25187.25
932.023	25015.25
932.255	24819.25
932.486	24584.25
932.718	24517.25
932.95	24193.25
933.182	24043.25
933.413	23924.25
933.645	23663.25
933.877	23731.25
934.108	23549.25
934.34	23403.25
934.571	23222.25
934.803	23257.25
935.034	23128.25
935.265	23076.25
935.497	22951.25
935.728	22896.25
935.959	22770.25
936.19	22636.25
936.422	22559.25
936.653	22386.25
936.884	22274.25
937.115	22049.25
937.346	21834.25
937.577	21777.25
937.807	21652.25
938.038	21491.25
938.269	21424.25
938.5	21411.25
938.73	21306.25
938.961	21360.25
939.192	21199.25
939.422	21214.25
939.653	21110.25
939.883	21119.25
940.114	21048.25
940.344	21014.25
940.574	20879.25
940.805	20675.25
941.035	20637.25
941.265	20479.25
941.495	20310.25
941.726	20108.25
941.956	20004.25
942.186	19843.25
942.416	19633.25
942.646	19459.25
942.876	19345.25
943.105	19159.25
943.335	19076.25
943.565	18861.25
943.795	18673.25
944.024	18459.25
944.254	18426.25
944.484	18324.25
944.713	18133.25
944.943	18168.25
945.172	17998.25
945.402	18058.25
945.631	17871.25
945.86	17825.25
946.09	17743.25
946.319	17738.25
946.548	17756.25
946.777	17798.25
947.006	17536.25
947.235	17526.25
947.465	17416.25
947.694	17375.25
947.922	17228.25
948.151	17000.25
948.38	16926.25
948.609	16796.25
948.838	16666.25
949.067	16551.25
949.295	16510.25
949.524	16326.25
949.752	16357.25
949.981	16084.25
950.21	15973.25
950.438	15922.25
950.666	15786.25
950.895	15634.25
951.123	15574.25
951.351	15445.25
951.58	15291.25
951.808	15386.25
952.036	15275.25
952.264	15074.25
952.492	15054.25
952.72	14959.25
952.948	14832.25
953.176	14781.25
953.404	14589.25
953.632	14454.25
953.86	14354.25
954.088	14254.25
954.315	14142.25
954.543	14043.25
954.771	13998.25
954.998	13977.25
955.226	13854.25
955.453	13746.25
955.681	13744.25
955.908	13652.25
956.135	13657.25
956.363	13629.25
956.59	13640.25
956.817	13584.25
957.045	13530.25
957.272	13391.25
957.499	13343.25
957.726	13269.25
957.953	13210.25
958.18	13110.25
958.407	13018.25
958.634	13016.25
958.861	12967.25
959.087	12790.25
959.314	12707.25
959.541	12614.25
959.767	12526.25
959.994	12395.25
960.221	12343.25
960.447	12245.25
960.674	12093.25
960.9	11980.25
961.127	11870.25
961.353	11802.25
961.579	11740.25
961.806	11733.25
962.032	11594.25
962.258	11564.25
962.484	11466.25
962.71	11377.25
962.936	11364.25
963.162	11360.25
963.388	11259.25
963.614	11329.25
963.84	11238.25
964.066	11262.25
964.292	11136.25
964.518	11079.25
964.743	11092.25
964.969	11050.25
965.195	10964.25
965.42	10851.25
965.646	10910.25
965.871	10706.25
966.097	10600.25
966.322	10622.25
966.547	10570.25
966.773	10492.25
966.998	10423.25
967.223	10389.25
967.448	10275.25
967.674	10277.25
967.899	10263.25
968.124	10191.25
968.349	10078.25
968.574	10005.25
968.799	9943.25
969.024	9901.25
969.248	9876.25
969.473	9832.25
969.698	9753.25
969.923	9676.25
970.147	9592.25
970.372	9540.25
970.596	9494.25
970.821	9391.25
971.046	9377.25
971.27	9336.25
971.494	9230.25
971.719	9115.25
971.943	9082.25
972.167	9086.25
972.392	8993.25
972.616	8909.25
972.84	8858.25
973.064	8789.25
973.288	8758.25
973.512	8689.25
973.736	8687.25
973.96	8639.25
974.184	8652.25
974.408	8569.25
974.631	8577.25
974.855	8523.25
975.079	8469.25
975.303	8462.25
975.526	8382.25
975.75	8351.25
975.973	8398.25
976.197	8260.25
976.42	8249.25
976.644	8190.25
976.867	8126.25
977.09	8113.25
977.313	7997.25
977.537	7888.25
977.76	7911.25
977.983	7840.25
978.206	7785.25
978.429	7692.25
978.652	7632.25
978.875	7561.25
979.098	7541.25
979.321	7505.25
979.544	7413.25
979.767	7394.25
979.989	7317.25
980.212	7290.25
980.435	7216.25
980.657	7138.25
980.88	7206.25
981.102	7159.25
981.325	7063.25
981.547	6967.25
981.77	6960.25
981.992	6966.25
982.214	6916.25
982.437	6948.25
982.659	6872.25
982.881	6877.25
983.103	6838.25
983.325	6771.25
983.547	6744.25
983.769	6611.25
983.991	6647.25
984.213	6611.25
984.435	6619.25
984.657	6560.25
984.879	6534.25
985.1	6449.25
985.322	6475.25
985.544	6408.25
985.765	6402.25
985.987	6302.25
986.208	6341.25
986.43	6281.25
986.651	6205.25
986.873	6136.25
987.094	6146.25
987.315	6143.25
987.536	6020.25
987.758	6004.25
987.979	5990.25
988.2	5956.25
988.421	5860.25
988.642	5878.25
988.863	5821.25
989.084	5711.25
989.305	5748.25
989.526	5646.25
989.747	5619.25
989.967	5619.25
990.188	5563.25
990.409	5530.25
990.629	5461.25
990.85	5478.25
991.071	5399.25
991.291	5415.25
991.512	5342.25
991.732	5340.25
991.952	5299.25
992.173	5261.25
992.393	5228.25
992.613	5184.25
992.834	5175.25
993.054	5180.25
993.274	5158.25
993.494	5081.25
993.714	5123.25
993.934	5083.25
994.154	5065.25
994.374	5028.25
994.594	4974.25
994.813	4970.25
995.033	4956.25
995.253	4950.25
995.473	4904.25
995.692	4856.25
995.912	4774.25
996.131	4815.25
996.351	4770.25
996.57	4706.25
996.79	4617.25
997.009	4669.25
997.228	4609.25
997.448	4528.25
997.667	4487.25
997.886	4470.25
998.105	4449.25
998.325	4388.25
998.544	4333.25
998.763	4325.25
998.982	4274.25
999.201	4286.25
999.419	4256.25
999.638	4195.25
999.857	4194.25
1000.076	4144.25
1000.295	4148.25
1000.513	4097.25
1000.732	4122.25
1000.95	4027.25
1001.169	4081.25
1001.388	3979.25
1001.606	4006.25
1001.824	4035.25
1002.043	3983.25
1002.261	3952.25
1002.479	3977.25
1002.698	3887.25
1002.916	3897.25
1003.134	3872.25
1003.352	3825.25
1003.57	3808.25
1003.788	3804.25
1004.006	3735.25
1004.224	3730.25
1004.442	3734.25
1004.66	3706.25
1004.878	3730.25
1005.095	3696.25
1005.313	3623.25
1005.531	3627.25
1005.748	3641.25
1005.966	3655.25
1006.184	3585.25
1006.401	3591.25
1006.618	3522.25
1006.836	3469.25
1007.053	3502.25
1007.271	3471.25
1007.488	3427.25
1007.705	3475.25
1007.922	3409.25
1008.139	3392.25
1008.357	3384.25
1008.574	3398.25
1008.791	3408.25
1009.008	3415.25
1009.225	3436.25
1009.441	3384.25
1009.658	3405.25
1009.875	3390.25
1010.092	3361.25
1010.309	3321.25
1010.525	3285.25
1010.742	3301.25
1010.958	3235.25
1011.175	3211.25
1011.391	3187.25
1011.608	3164.25
1011.824	3129.25
1012.041	3062.25
1012.257	3060.25
1012.473	3041.25
1012.689	3016.25
1012.906	2992.25
1013.122	2968.25
1013.338	2982.25
1013.554	2937.25
1013.77	2921.25
1013.986	2932.25
1014.202	2939.25
1014.418	2987.25
1014.634	2990.25
1014.849	2988.25
1015.065	3041.25
1015.281	3004.25
1015.496	2978.25
1015.712	2981.25
1015.928	2967.25
1016.143	2866.25
1016.359	2866.25
1016.574	2844.25
1016.79	2794.25
1017.005	2748.25
1017.22	2661.25
1017.435	2607.25
1017.651	2585.25
1017.866	2574.25
1018.081	2548.25
1018.296	2514.25
1018.511	2470.25
1018.726	2447.25
1018.941	2440.25
1019.156	2405.25
1019.371	2372.25
1019.586	2364.25
1019.801	2361.25
1020.015	2336.25
1020.23	2307.25
1020.445	2297.25
1020.659	2294.25
1020.874	2247.25
1021.088	2223.25
1021.303	2163.25
1021.517	2149.25
1021.732	2108.25
1021.946	2104.25
1022.16	2112.25
1022.375	2103.25
1022.589	2046.25
1022.803	2041.25
1023.017	1967.25
1023.231	1939.25
1023.445	1951.25
1023.659	1882.25
1023.873	1846.25
1024.087	1796.25
1024.301	1762.25
1024.515	1778.25
1024.729	1740.25
1024.942	1678.25
1025.156	1669.25
1025.37	1630.25
1025.583	1591.25
1025.797	1590.25
1026.01	1503.25
1026.224	1504.25
1026.437	1477.25
1026.651	1471.25
1026.864	1391.25
1027.077	1363.25
1027.291	1314.25
1027.504	1310.25
1027.717	1280.25
1027.93	1209.25
1028.143	1182.25
1028.356	1124.25
1028.569	1102.25
1028.782	1032.25
1028.995	-0.75
1029.208	0.25
1029.421	-2.75
1029.634	-2.75
