Data from QEP037381__159__15-12-08-539.txt Node

Date: Mon Mar 14 15:12:08 EDT 2022
User: dcclab
Spectrometer: QEP03738
Trigger mode: 4
Integration Time (sec): 1.500000E0
Scans to average: 1
Electric dark correction enabled: true
Nonlinearity correction enabled: false
Boxcar width: 0
XAxis mode: Wavelengths
Number of Pixels in Spectrum: 1044
>>>>>Begin Spectral Data<<<<<
783.959	13.25
784.218	0.25
784.476	-3.75
784.734	-1.75
784.992	236.25
785.251	236.25
785.509	241.25
785.767	227.25
786.025	239.25
786.283	234.25
786.541	252.25
786.798	235.25
787.056	240.25
787.314	230.25
787.572	246.25
787.83	249.25
788.087	247.25
788.345	240.25
788.602	256.25
788.86	250.25
789.117	253.25
789.375	265.25
789.632	252.25
789.89	271.25
790.147	287.25
790.404	278.25
790.661	277.25
790.919	307.25
791.176	293.25
791.433	303.25
791.69	314.25
791.947	318.25
792.204	309.25
792.461	337.25
792.718	350.25
792.974	343.25
793.231	362.25
793.488	399.25
793.745	385.25
794.001	414.25
794.258	445.25
794.514	461.25
794.771	492.25
795.027	507.25
795.284	544.25
795.54	586.25
795.797	627.25
796.053	676.25
796.309	749.25
796.565	819.25
796.822	916.25
797.078	1069.25
797.334	1217.25
797.59	1465.25
797.846	1844.25
798.102	2439.25
798.358	3348.25
798.614	4798.25
798.869	6943.25
799.125	10339.25
799.381	15232.25
799.637	21589.25
799.892	29377.25
800.148	38141.25
800.403	46090.25
800.659	53376.25
800.914	58709.25
801.17	62201.25
801.425	64588.25
801.68	66201.25
801.936	67629.25
802.191	68904.25
802.446	70286.25
802.701	71956.25
802.957	73143.25
803.212	74493.25
803.467	75963.25
803.722	77367.25
803.977	78752.25
804.232	79997.25
804.486	81800.25
804.741	82796.25
804.996	84349.25
805.251	85695.25
805.505	87016.25
805.76	88366.25
806.015	89610.25
806.269	90544.25
806.524	91119.25
806.778	92021.25
807.033	92853.25
807.287	93921.25
807.541	94820.25
807.796	95875.25
808.05	96778.25
808.304	97682.25
808.558	98112.25
808.812	98639.25
809.066	99232.25
809.32	100022.25
809.574	100454.25
809.828	101011.25
810.082	101904.25
810.336	102247.25
810.59	103130.25
810.844	104123.25
811.097	105397.25
811.351	106596.25
811.605	108284.25
811.858	109711.25
812.112	111663.25
812.365	113183.25
812.619	114745.25
812.872	116359.25
813.126	117542.25
813.379	118907.25
813.632	120250.25
813.885	121635.25
814.139	123111.25
814.392	124505.25
814.645	126708.25
814.898	128880.25
815.151	130900.25
815.404	133020.25
815.657	135026.25
815.91	137320.25
816.163	138257.25
816.416	139840.25
816.668	140955.25
816.921	141330.25
817.174	141803.25
817.426	141448.25
817.679	141431.25
817.931	141009.25
818.184	140841.25
818.436	140619.25
818.689	140482.25
818.941	140480.25
819.194	141166.25
819.446	141436.25
819.698	141799.25
819.95	142052.25
820.202	142662.25
820.455	142658.25
820.707	143142.25
820.959	143027.25
821.211	142839.25
821.462	142426.25
821.714	142171.25
821.966	141122.25
822.218	140610.25
822.47	139782.25
822.722	138901.25
822.973	138238.25
823.225	137725.25
823.476	137447.25
823.728	137251.25
823.979	137246.25
824.231	137040.25
824.482	136910.25
824.734	136722.25
824.985	136620.25
825.236	136409.25
825.487	135764.25
825.739	135456.25
825.99	134644.25
826.241	133932.25
826.492	132906.25
826.743	132266.25
826.994	131864.25
827.245	131130.25
827.496	130503.25
827.747	130592.25
827.997	130439.25
828.248	130301.25
828.499	130158.25
828.75	130163.25
829	129966.25
829.251	129660.25
829.501	129257.25
829.752	128622.25
830.002	127985.25
830.253	127151.25
830.503	125847.25
830.753	125371.25
831.004	124543.25
831.254	123490.25
831.504	123244.25
831.754	123124.25
832.004	122601.25
832.254	122927.25
832.504	122596.25
832.754	122750.25
833.004	122482.25
833.254	121965.25
833.504	121242.25
833.754	120753.25
834.003	119869.25
834.253	119804.25
834.503	119155.25
834.752	118008.25
835.002	117631.25
835.252	116756.25
835.501	116318.25
835.75	115608.25
836	115458.25
836.249	115359.25
836.499	115319.25
836.748	114953.25
836.997	114631.25
837.246	114509.25
837.495	114464.25
837.744	114781.25
837.993	114404.25
838.242	114377.25
838.491	113996.25
838.74	113337.25
838.989	112362.25
839.238	111656.25
839.487	110673.25
839.736	110127.25
839.984	109375.25
840.233	109029.25
840.482	108605.25
840.73	107961.25
840.979	107559.25
841.227	107091.25
841.476	106807.25
841.724	106303.25
841.972	105798.25
842.221	105377.25
842.469	105007.25
842.717	104441.25
842.965	104246.25
843.213	103823.25
843.461	103246.25
843.71	102954.25
843.958	102480.25
844.205	101942.25
844.453	101782.25
844.701	101435.25
844.949	101277.25
845.197	101211.25
845.445	101157.25
845.692	101110.25
845.94	101203.25
846.188	100932.25
846.435	100621.25
846.683	100210.25
846.93	99729.25
847.178	99356.25
847.425	98479.25
847.672	97501.25
847.92	96966.25
848.167	95961.25
848.414	94711.25
848.661	94208.25
848.908	93446.25
849.155	93106.25
849.402	93210.25
849.649	93199.25
849.896	93025.25
850.143	93493.25
850.39	93620.25
850.637	93415.25
850.884	93436.25
851.131	93323.25
851.377	93051.25
851.624	92675.25
851.87	92189.25
852.117	91489.25
852.364	90915.25
852.61	90526.25
852.856	90384.25
853.103	89549.25
853.349	88999.25
853.595	88912.25
853.842	88242.25
854.088	88084.25
854.334	88156.25
854.58	88306.25
854.826	87901.25
855.072	86968.25
855.318	86432.25
855.564	85471.25
855.81	84903.25
856.056	84133.25
856.302	83578.25
856.548	82833.25
856.793	82394.25
857.039	81922.25
857.285	81658.25
857.53	81464.25
857.776	81466.25
858.021	81753.25
858.267	82072.25
858.512	81991.25
858.758	82036.25
859.003	82103.25
859.248	81994.25
859.493	81807.25
859.739	81620.25
859.984	81336.25
860.229	80709.25
860.474	80369.25
860.719	79857.25
860.964	79331.25
861.209	78590.25
861.454	78130.25
861.699	77538.25
861.943	77239.25
862.188	76828.25
862.433	76484.25
862.678	76005.25
862.922	76142.25
863.167	75908.25
863.411	75628.25
863.656	75324.25
863.9	75185.25
864.145	74530.25
864.389	74488.25
864.634	73915.25
864.878	73778.25
865.122	73307.25
865.366	72950.25
865.61	72787.25
865.855	72555.25
866.099	72540.25
866.343	72303.25
866.587	71840.25
866.831	71765.25
867.074	71871.25
867.318	71753.25
867.562	71673.25
867.806	71588.25
868.05	71377.25
868.293	71218.25
868.537	70964.25
868.78	70755.25
869.024	70377.25
869.267	69833.25
869.511	69085.25
869.754	68484.25
869.998	67939.25
870.241	67274.25
870.484	66909.25
870.728	66331.25
870.971	66091.25
871.214	65717.25
871.457	65629.25
871.7	65366.25
871.943	65322.25
872.186	65493.25
872.429	65211.25
872.672	65491.25
872.915	65408.25
873.158	65102.25
873.4	64827.25
873.643	64838.25
873.886	64469.25
874.128	64284.25
874.371	64053.25
874.613	63901.25
874.856	63583.25
875.098	63505.25
875.341	63338.25
875.583	63026.25
875.825	62743.25
876.068	62553.25
876.31	61923.25
876.552	61512.25
876.794	60858.25
877.036	60358.25
877.278	59841.25
877.52	59867.25
877.762	59336.25
878.004	59024.25
878.246	58888.25
878.488	58833.25
878.73	58702.25
878.972	58414.25
879.213	58418.25
879.455	58359.25
879.697	58153.25
879.938	57970.25
880.18	57592.25
880.421	57519.25
880.663	57012.25
880.904	57096.25
881.145	57114.25
881.387	56986.25
881.628	56984.25
881.869	56880.25
882.11	56644.25
882.352	56511.25
882.593	56283.25
882.834	56224.25
883.075	55958.25
883.316	55665.25
883.557	55625.25
883.797	55270.25
884.038	54850.25
884.279	54226.25
884.52	53584.25
884.761	53195.25
885.001	52739.25
885.242	52317.25
885.482	51819.25
885.723	51542.25
885.963	51307.25
886.204	51216.25
886.444	51045.25
886.685	50734.25
886.925	50400.25
887.165	50215.25
887.405	50036.25
887.646	49772.25
887.886	49748.25
888.126	49677.25
888.366	49596.25
888.606	49374.25
888.846	49637.25
889.086	49777.25
889.326	49554.25
889.565	49638.25
889.805	49428.25
890.045	49347.25
890.285	49016.25
890.524	49175.25
890.764	48800.25
891.003	48271.25
891.243	47722.25
891.482	47315.25
891.722	47040.25
891.961	46557.25
892.201	46383.25
892.44	45918.25
892.679	45931.25
892.918	45725.25
893.158	45599.25
893.397	45501.25
893.636	45301.25
893.875	45109.25
894.114	44953.25
894.353	44544.25
894.592	44444.25
894.831	44322.25
895.069	43878.25
895.308	43598.25
895.547	43364.25
895.786	43304.25
896.024	42974.25
896.263	42818.25
896.501	42710.25
896.74	42633.25
896.978	42551.25
897.217	42264.25
897.455	42383.25
897.694	42211.25
897.932	42083.25
898.17	42029.25
898.408	41792.25
898.646	41579.25
898.885	41374.25
899.123	41121.25
899.361	40894.25
899.599	40554.25
899.837	40289.25
900.075	40037.25
900.312	39874.25
900.55	39428.25
900.788	38994.25
901.026	38657.25
901.263	38221.25
901.501	38127.25
901.739	37724.25
901.976	37619.25
902.214	37453.25
902.451	37269.25
902.689	37139.25
902.926	37105.25
903.163	37018.25
903.401	36991.25
903.638	36935.25
903.875	36731.25
904.112	36816.25
904.349	36795.25
904.586	36742.25
904.823	36533.25
905.06	36231.25
905.297	35978.25
905.534	35812.25
905.771	35380.25
906.008	35185.25
906.245	34844.25
906.481	34732.25
906.718	34588.25
906.955	34406.25
907.191	34348.25
907.428	33909.25
907.664	33749.25
907.901	33767.25
908.137	33619.25
908.374	33468.25
908.61	33301.25
908.846	33072.25
909.083	32954.25
909.319	32718.25
909.555	32470.25
909.791	32310.25
910.027	32129.25
910.263	31676.25
910.499	31502.25
910.735	31196.25
910.971	30912.25
911.207	30545.25
911.443	30612.25
911.678	30325.25
911.914	30203.25
912.15	30197.25
912.385	30003.25
912.621	29972.25
912.857	29943.25
913.092	29860.25
913.328	29868.25
913.563	29996.25
913.798	29830.25
914.034	29729.25
914.269	29635.25
914.504	29433.25
914.739	29410.25
914.975	29107.25
915.21	28914.25
915.445	28788.25
915.68	28428.25
915.915	28248.25
916.15	27772.25
916.384	27432.25
916.619	27257.25
916.854	27003.25
917.089	26770.25
917.324	26679.25
917.558	26473.25
917.793	26397.25
918.028	26274.25
918.262	26088.25
918.497	26014.25
918.731	25966.25
918.965	25944.25
919.2	25803.25
919.434	25765.25
919.668	25764.25
919.903	25621.25
920.137	25590.25
920.371	25363.25
920.605	25183.25
920.839	25103.25
921.073	24912.25
921.307	24587.25
921.541	24533.25
921.775	24252.25
922.009	24226.25
922.243	24081.25
922.476	24210.25
922.71	24010.25
922.944	24035.25
923.177	23920.25
923.411	23860.25
923.644	23776.25
923.878	23701.25
924.111	23540.25
924.345	23444.25
924.578	23331.25
924.811	23270.25
925.045	23076.25
925.278	22922.25
925.511	22733.25
925.744	22440.25
925.977	22343.25
926.21	22172.25
926.443	21917.25
926.676	21774.25
926.909	21572.25
927.142	21464.25
927.375	21258.25
927.608	21118.25
927.841	20944.25
928.073	20871.25
928.306	20866.25
928.539	20815.25
928.771	20784.25
929.004	20679.25
929.236	20702.25
929.469	20726.25
929.701	20785.25
929.933	20750.25
930.166	20657.25
930.398	20582.25
930.63	20562.25
930.862	20509.25
931.094	20405.25
931.327	20270.25
931.559	20143.25
931.791	19879.25
932.023	19791.25
932.255	19716.25
932.486	19537.25
932.718	19437.25
932.95	19184.25
933.182	19166.25
933.413	19013.25
933.645	18925.25
933.877	18838.25
934.108	18789.25
934.34	18660.25
934.571	18603.25
934.803	18572.25
935.034	18441.25
935.265	18329.25
935.497	18261.25
935.728	18274.25
935.959	18168.25
936.19	18104.25
936.422	17904.25
936.653	17849.25
936.884	17678.25
937.115	17627.25
937.346	17483.25
937.577	17297.25
937.807	17237.25
938.038	17230.25
938.269	17163.25
938.5	17030.25
938.73	17168.25
938.961	16978.25
939.192	17023.25
939.422	17015.25
939.653	16935.25
939.883	16863.25
940.114	16753.25
940.344	16718.25
940.574	16770.25
940.805	16612.25
941.035	16443.25
941.265	16423.25
941.495	16332.25
941.726	16103.25
941.956	15922.25
942.186	15854.25
942.416	15781.25
942.646	15573.25
942.876	15497.25
943.105	15281.25
943.335	15221.25
943.565	15097.25
943.795	14936.25
944.024	14743.25
944.254	14762.25
944.484	14693.25
944.713	14607.25
944.943	14502.25
945.172	14434.25
945.402	14458.25
945.631	14351.25
945.86	14429.25
946.09	14318.25
946.319	14326.25
946.548	14231.25
946.777	14219.25
947.006	14157.25
947.235	14119.25
947.465	13973.25
947.694	13919.25
947.922	13839.25
948.151	13683.25
948.38	13589.25
948.609	13499.25
948.838	13433.25
949.067	13366.25
949.295	13281.25
949.524	13097.25
949.752	13018.25
949.981	12983.25
950.21	12842.25
950.438	12848.25
950.666	12796.25
950.895	12616.25
951.123	12525.25
951.351	12483.25
951.58	12367.25
951.808	12349.25
952.036	12241.25
952.264	12170.25
952.492	12123.25
952.72	12035.25
952.948	11991.25
953.176	11999.25
953.404	11779.25
953.632	11656.25
953.86	11595.25
954.088	11519.25
954.315	11472.25
954.543	11379.25
954.771	11273.25
954.998	11258.25
955.226	11167.25
955.453	11127.25
955.681	11106.25
955.908	10945.25
956.135	11006.25
956.363	10932.25
956.59	10926.25
956.817	10934.25
957.045	10929.25
957.272	10866.25
957.499	10818.25
957.726	10740.25
957.953	10714.25
958.18	10606.25
958.407	10580.25
958.634	10455.25
958.861	10440.25
959.087	10368.25
959.314	10294.25
959.541	10263.25
959.767	10114.25
959.994	9939.25
960.221	9977.25
960.447	9927.25
960.674	9787.25
960.9	9724.25
961.127	9671.25
961.353	9628.25
961.579	9557.25
961.806	9440.25
962.032	9416.25
962.258	9396.25
962.484	9272.25
962.71	9198.25
962.936	9220.25
963.162	9216.25
963.388	9149.25
963.614	9148.25
963.84	9124.25
964.066	9061.25
964.292	9072.25
964.518	9060.25
964.743	8934.25
964.969	8987.25
965.195	8924.25
965.42	8847.25
965.646	8777.25
965.871	8740.25
966.097	8664.25
966.322	8602.25
966.547	8564.25
966.773	8546.25
966.998	8528.25
967.223	8496.25
967.448	8459.25
967.674	8399.25
967.899	8342.25
968.124	8322.25
968.349	8232.25
968.574	8181.25
968.799	8055.25
969.024	8083.25
969.248	8073.25
969.473	7946.25
969.698	8013.25
969.923	7822.25
970.147	7873.25
970.372	7745.25
970.596	7730.25
970.821	7681.25
971.046	7659.25
971.27	7584.25
971.494	7532.25
971.719	7423.25
971.943	7402.25
972.167	7361.25
972.392	7338.25
972.616	7245.25
972.84	7198.25
973.064	7194.25
973.288	7175.25
973.512	7083.25
973.736	7045.25
973.96	7084.25
974.184	6999.25
974.408	7012.25
974.631	7046.25
974.855	6969.25
975.079	6909.25
975.303	6869.25
975.526	6828.25
975.75	6871.25
975.973	6796.25
976.197	6743.25
976.42	6704.25
976.644	6745.25
976.867	6635.25
977.09	6603.25
977.313	6562.25
977.537	6457.25
977.76	6416.25
977.983	6371.25
978.206	6355.25
978.429	6378.25
978.652	6316.25
978.875	6223.25
979.098	6181.25
979.321	6189.25
979.544	6106.25
979.767	6078.25
979.989	5983.25
980.212	5952.25
980.435	5960.25
980.657	5906.25
980.88	5846.25
981.102	5836.25
981.325	5773.25
981.547	5774.25
981.77	5774.25
981.992	5720.25
982.214	5685.25
982.437	5651.25
982.659	5644.25
982.881	5639.25
983.103	5595.25
983.325	5592.25
983.547	5504.25
983.769	5484.25
983.991	5456.25
984.213	5439.25
984.435	5419.25
984.657	5367.25
984.879	5370.25
985.1	5308.25
985.322	5318.25
985.544	5264.25
985.765	5247.25
985.987	5185.25
986.208	5184.25
986.43	5152.25
986.651	5128.25
986.873	5098.25
987.094	5026.25
987.315	4986.25
987.536	4988.25
987.758	4930.25
987.979	4893.25
988.2	4876.25
988.421	4810.25
988.642	4798.25
988.863	4743.25
989.084	4698.25
989.305	4678.25
989.526	4661.25
989.747	4665.25
989.967	4612.25
990.188	4598.25
990.409	4503.25
990.629	4525.25
990.85	4491.25
991.071	4431.25
991.291	4442.25
991.512	4372.25
991.732	4349.25
991.952	4321.25
992.173	4284.25
992.393	4329.25
992.613	4284.25
992.834	4301.25
993.054	4256.25
993.274	4196.25
993.494	4235.25
993.714	4239.25
993.934	4201.25
994.154	4176.25
994.374	4176.25
994.594	4135.25
994.813	4104.25
995.033	4081.25
995.253	4048.25
995.473	4024.25
995.692	4016.25
995.912	3984.25
996.131	3930.25
996.351	3935.25
996.57	3862.25
996.79	3860.25
997.009	3796.25
997.228	3762.25
997.448	3799.25
997.667	3708.25
997.886	3670.25
998.105	3656.25
998.325	3617.25
998.544	3612.25
998.763	3612.25
998.982	3520.25
999.201	3495.25
999.419	3516.25
999.638	3489.25
999.857	3477.25
1000.076	3432.25
1000.295	3414.25
1000.513	3402.25
1000.732	3388.25
1000.95	3395.25
1001.169	3378.25
1001.388	3333.25
1001.606	3287.25
1001.824	3300.25
1002.043	3308.25
1002.261	3299.25
1002.479	3253.25
1002.698	3239.25
1002.916	3196.25
1003.134	3241.25
1003.352	3162.25
1003.57	3189.25
1003.788	3165.25
1004.006	3148.25
1004.224	3142.25
1004.442	3078.25
1004.66	3106.25
1004.878	3105.25
1005.095	3028.25
1005.313	3039.25
1005.531	2993.25
1005.748	3032.25
1005.966	3036.25
1006.184	2967.25
1006.401	3004.25
1006.618	2944.25
1006.836	2922.25
1007.053	2936.25
1007.271	2862.25
1007.488	2880.25
1007.705	2911.25
1007.922	2882.25
1008.139	2808.25
1008.357	2820.25
1008.574	2839.25
1008.791	2822.25
1009.008	2862.25
1009.225	2866.25
1009.441	2879.25
1009.658	2903.25
1009.875	2827.25
1010.092	2827.25
1010.309	2846.25
1010.525	2798.25
1010.742	2756.25
1010.958	2770.25
1011.175	2705.25
1011.391	2678.25
1011.608	2689.25
1011.824	2622.25
1012.041	2634.25
1012.257	2598.25
1012.473	2558.25
1012.689	2552.25
1012.906	2508.25
1013.122	2526.25
1013.338	2524.25
1013.554	2517.25
1013.77	2499.25
1013.986	2486.25
1014.202	2531.25
1014.418	2533.25
1014.634	2553.25
1014.849	2571.25
1015.065	2622.25
1015.281	2616.25
1015.496	2578.25
1015.712	2549.25
1015.928	2532.25
1016.143	2483.25
1016.359	2456.25
1016.574	2413.25
1016.79	2408.25
1017.005	2327.25
1017.22	2296.25
1017.435	2259.25
1017.651	2237.25
1017.866	2203.25
1018.081	2171.25
1018.296	2108.25
1018.511	2121.25
1018.726	2081.25
1018.941	2066.25
1019.156	2043.25
1019.371	2020.25
1019.586	2008.25
1019.801	2012.25
1020.015	1964.25
1020.23	1952.25
1020.445	1960.25
1020.659	1924.25
1020.874	1929.25
1021.088	1844.25
1021.303	1824.25
1021.517	1809.25
1021.732	1811.25
1021.946	1801.25
1022.16	1802.25
1022.375	1759.25
1022.589	1737.25
1022.803	1720.25
1023.017	1672.25
1023.231	1671.25
1023.445	1610.25
1023.659	1585.25
1023.873	1566.25
1024.087	1523.25
1024.301	1521.25
1024.515	1468.25
1024.729	1476.25
1024.942	1415.25
1025.156	1383.25
1025.37	1391.25
1025.583	1360.25
1025.797	1335.25
1026.01	1310.25
1026.224	1277.25
1026.437	1270.25
1026.651	1205.25
1026.864	1160.25
1027.077	1143.25
1027.291	1116.25
1027.504	1107.25
1027.717	1074.25
1027.93	1038.25
1028.143	1005.25
1028.356	972.25
1028.569	926.25
1028.782	868.25
1028.995	-3.75
1029.208	0.25
1029.421	-1.75
1029.634	-2.75
