Data from QEP037381__142__15-11-20-538.txt Node

Date: Mon Mar 14 15:11:20 EDT 2022
User: dcclab
Spectrometer: QEP03738
Trigger mode: 4
Integration Time (sec): 1.500000E0
Scans to average: 1
Electric dark correction enabled: true
Nonlinearity correction enabled: false
Boxcar width: 0
XAxis mode: Wavelengths
Number of Pixels in Spectrum: 1044
>>>>>Begin Spectral Data<<<<<
783.959	12.12
784.218	3.12
784.476	-4.88
784.734	-0.88
784.992	239.12
785.251	244.12
785.509	231.12
785.767	233.12
786.025	249.12
786.283	251.12
786.541	253.12
786.798	248.12
787.056	257.12
787.314	244.12
787.572	255.12
787.83	262.12
788.087	254.12
788.345	258.12
788.602	267.12
788.86	271.12
789.117	273.12
789.375	267.12
789.632	282.12
789.89	272.12
790.147	290.12
790.404	283.12
790.661	284.12
790.919	312.12
791.176	306.12
791.433	307.12
791.69	318.12
791.947	333.12
792.204	330.12
792.461	355.12
792.718	356.12
792.974	371.12
793.231	384.12
793.488	400.12
793.745	401.12
794.001	423.12
794.258	456.12
794.514	474.12
794.771	502.12
795.027	530.12
795.284	574.12
795.54	600.12
795.797	648.12
796.053	710.12
796.309	774.12
796.565	853.12
796.822	953.12
797.078	1074.12
797.334	1278.12
797.59	1534.12
797.846	1901.12
798.102	2520.12
798.358	3437.12
798.614	4890.12
798.869	7239.12
799.125	10628.12
799.381	15699.12
799.637	22361.12
799.892	30397.12
800.148	39323.12
800.403	47970.12
800.659	55416.12
800.914	61206.12
801.17	64994.12
801.425	67645.12
801.68	69411.12
801.936	70894.12
802.191	72187.12
802.446	73742.12
802.701	75179.12
802.957	76648.12
803.212	78208.12
803.467	79403.12
803.722	81031.12
803.977	82280.12
804.232	83796.12
804.486	85297.12
804.741	86862.12
804.996	88292.12
805.251	89647.12
805.505	91119.12
805.76	92597.12
806.015	93695.12
806.269	94746.12
806.524	95930.12
806.778	96333.12
807.033	97258.12
807.287	98148.12
807.541	99155.12
807.796	100147.12
808.05	101303.12
808.304	101958.12
808.558	102439.12
808.812	103237.12
809.066	103881.12
809.32	104341.12
809.574	104961.12
809.828	105490.12
810.082	106068.12
810.336	106863.12
810.59	107901.12
810.844	108840.12
811.097	110294.12
811.351	111639.12
811.605	112776.12
811.858	114888.12
812.112	116494.12
812.365	117995.12
812.619	119859.12
812.872	121370.12
813.126	122870.12
813.379	124114.12
813.632	125403.12
813.885	126940.12
814.139	128431.12
814.392	130213.12
814.645	132142.12
814.898	134465.12
815.151	136642.12
815.404	138569.12
815.657	141183.12
815.91	143101.12
816.163	144534.12
816.416	146018.12
816.668	146722.12
816.921	147422.12
817.174	147762.12
817.426	147634.12
817.679	147225.12
817.931	147155.12
818.184	146729.12
818.436	146517.12
818.689	146710.12
818.941	146742.12
819.194	146789.12
819.446	147316.12
819.698	147609.12
819.95	148156.12
820.202	148452.12
820.455	148768.12
820.707	148944.12
820.959	149095.12
821.211	148812.12
821.462	148428.12
821.714	148198.12
821.966	147228.12
822.218	146604.12
822.47	145233.12
822.722	144660.12
822.973	144030.12
823.225	143592.12
823.476	143248.12
823.728	142973.12
823.979	143000.12
824.231	142769.12
824.482	142580.12
824.734	142272.12
824.985	142477.12
825.236	142383.12
825.487	141558.12
825.739	141092.12
825.99	140529.12
826.241	139594.12
826.492	138733.12
826.743	137837.12
826.994	137285.12
827.245	136631.12
827.496	136111.12
827.747	135584.12
827.997	135599.12
828.248	135681.12
828.499	135320.12
828.75	135233.12
829	135262.12
829.251	135125.12
829.501	134765.12
829.752	133840.12
830.002	132828.12
830.253	131878.12
830.503	131105.12
830.753	130180.12
831.004	129419.12
831.254	128522.12
831.504	128418.12
831.754	128081.12
832.004	128013.12
832.254	127615.12
832.504	127538.12
832.754	127680.12
833.004	127266.12
833.254	126887.12
833.504	126411.12
833.754	125779.12
834.003	124948.12
834.253	124368.12
834.503	123535.12
834.752	122773.12
835.002	122001.12
835.252	121227.12
835.501	120767.12
835.75	120352.12
836	120165.12
836.249	120215.12
836.499	119704.12
836.748	119297.12
836.997	119191.12
837.246	119302.12
837.495	119311.12
837.744	119232.12
837.993	119108.12
838.242	119227.12
838.491	118978.12
838.74	117731.12
838.989	116747.12
839.238	116044.12
839.487	115411.12
839.736	114250.12
839.984	114054.12
840.233	113221.12
840.482	112520.12
840.73	112161.12
840.979	111719.12
841.227	111080.12
841.476	110818.12
841.724	110440.12
841.972	109975.12
842.221	109739.12
842.469	109191.12
842.717	108787.12
842.965	108353.12
843.213	107773.12
843.461	107481.12
843.71	106886.12
843.958	106326.12
844.205	106094.12
844.453	105819.12
844.701	105656.12
844.949	105381.12
845.197	105138.12
845.445	105154.12
845.692	105160.12
845.94	104972.12
846.188	105085.12
846.435	104930.12
846.683	104130.12
846.93	103829.12
847.178	103080.12
847.425	102117.12
847.672	101247.12
847.92	100500.12
848.167	99337.12
848.414	98547.12
848.661	97740.12
848.908	97023.12
849.155	96906.12
849.402	96540.12
849.649	96654.12
849.896	96586.12
850.143	97042.12
850.39	97342.12
850.637	97374.12
850.884	96999.12
851.131	96881.12
851.377	96596.12
851.624	96128.12
851.87	95679.12
852.117	95187.12
852.364	94709.12
852.61	94012.12
852.856	93593.12
853.103	93239.12
853.349	92742.12
853.595	92292.12
853.842	91642.12
854.088	91255.12
854.334	91579.12
854.58	91280.12
854.826	91103.12
855.072	90445.12
855.318	89579.12
855.564	88756.12
855.81	88030.12
856.056	87354.12
856.302	86614.12
856.548	85990.12
856.793	85592.12
857.039	84927.12
857.285	84883.12
857.53	84680.12
857.776	84688.12
858.021	84863.12
858.267	85078.12
858.512	85122.12
858.758	85124.12
859.003	85083.12
859.248	85132.12
859.493	85137.12
859.739	84716.12
859.984	84579.12
860.229	83878.12
860.474	83528.12
860.719	82826.12
860.964	82476.12
861.209	81611.12
861.454	81190.12
861.699	80578.12
861.943	80231.12
862.188	79734.12
862.433	79332.12
862.678	78964.12
862.922	78793.12
863.167	78789.12
863.411	78363.12
863.656	78309.12
863.9	77938.12
864.145	77476.12
864.389	77318.12
864.634	76758.12
864.878	76393.12
865.122	76111.12
865.366	75792.12
865.61	75760.12
865.855	75356.12
866.099	75036.12
866.343	74987.12
866.587	74786.12
866.831	74547.12
867.074	74415.12
867.318	74347.12
867.562	74479.12
867.806	74207.12
868.05	74084.12
868.293	74021.12
868.537	73778.12
868.78	73447.12
869.024	73146.12
869.267	72416.12
869.511	71958.12
869.754	71191.12
869.998	70466.12
870.241	69832.12
870.484	69492.12
870.728	68969.12
870.971	68453.12
871.214	68268.12
871.457	68059.12
871.7	67917.12
871.943	68093.12
872.186	67795.12
872.429	68035.12
872.672	68005.12
872.915	67904.12
873.158	67685.12
873.4	67540.12
873.643	67246.12
873.886	67028.12
874.128	66745.12
874.371	66603.12
874.613	66319.12
874.856	66141.12
875.098	65827.12
875.341	65650.12
875.583	65306.12
875.825	65236.12
876.068	64759.12
876.31	64479.12
876.552	63755.12
876.794	63210.12
877.036	62623.12
877.278	62100.12
877.52	61980.12
877.762	61629.12
878.004	61255.12
878.246	61181.12
878.488	61179.12
878.73	61114.12
878.972	60796.12
879.213	60747.12
879.455	60652.12
879.697	60492.12
879.938	60243.12
880.18	59896.12
880.421	59668.12
880.663	59311.12
880.904	59195.12
881.145	59241.12
881.387	59190.12
881.628	59211.12
881.869	58903.12
882.11	58794.12
882.352	58628.12
882.593	58505.12
882.834	58371.12
883.075	58043.12
883.316	57790.12
883.557	57658.12
883.797	57423.12
884.038	56731.12
884.279	56178.12
884.52	55713.12
884.761	55133.12
885.001	54741.12
885.242	54174.12
885.482	53894.12
885.723	53619.12
885.963	53335.12
886.204	53327.12
886.444	52953.12
886.685	52516.12
886.925	52356.12
887.165	52169.12
887.405	51992.12
887.646	51571.12
887.886	51589.12
888.126	51548.12
888.366	51476.12
888.606	51435.12
888.846	51463.12
889.086	51515.12
889.326	51398.12
889.565	51665.12
889.805	51368.12
890.045	51202.12
890.285	51089.12
890.524	50934.12
890.764	50695.12
891.003	50260.12
891.243	49738.12
891.482	49338.12
891.722	48973.12
891.961	48432.12
892.201	48272.12
892.44	47838.12
892.679	47592.12
892.918	47534.12
893.158	47453.12
893.397	47227.12
893.636	46777.12
893.875	46779.12
894.114	46500.12
894.353	46501.12
894.592	46186.12
894.831	46102.12
895.069	45743.12
895.308	45362.12
895.547	45144.12
895.786	44727.12
896.024	44609.12
896.263	44622.12
896.501	44185.12
896.74	44224.12
896.978	44221.12
897.217	44018.12
897.455	44014.12
897.694	43810.12
897.932	43570.12
898.17	43675.12
898.408	43458.12
898.646	43287.12
898.885	43043.12
899.123	42821.12
899.361	42440.12
899.599	42294.12
899.837	41893.12
900.075	41602.12
900.312	41360.12
900.55	41072.12
900.788	40531.12
901.026	40320.12
901.263	39729.12
901.501	39665.12
901.739	39212.12
901.976	39061.12
902.214	38821.12
902.451	38720.12
902.689	38739.12
902.926	38540.12
903.163	38472.12
903.401	38494.12
903.638	38405.12
903.875	38222.12
904.112	38304.12
904.349	38168.12
904.586	37985.12
904.823	37968.12
905.06	37849.12
905.297	37401.12
905.534	36906.12
905.771	36793.12
906.008	36521.12
906.245	36322.12
906.481	36000.12
906.718	35942.12
906.955	35837.12
907.191	35463.12
907.428	35270.12
907.664	35171.12
907.901	35049.12
908.137	34945.12
908.374	34698.12
908.61	34595.12
908.846	34302.12
909.083	34264.12
909.319	34123.12
909.555	33762.12
909.791	33587.12
910.027	33318.12
910.263	32893.12
910.499	32629.12
910.735	32410.12
910.971	32152.12
911.207	32045.12
911.443	31687.12
911.678	31692.12
911.914	31403.12
912.15	31374.12
912.385	31244.12
912.621	31280.12
912.857	31247.12
913.092	31049.12
913.328	30950.12
913.563	31017.12
913.798	30899.12
914.034	30852.12
914.269	30792.12
914.504	30670.12
914.739	30428.12
914.975	30268.12
915.21	29999.12
915.445	29820.12
915.68	29445.12
915.915	29297.12
916.15	28866.12
916.384	28571.12
916.619	28377.12
916.854	28001.12
917.089	28040.12
917.324	27760.12
917.558	27519.12
917.793	27308.12
918.028	27206.12
918.262	27015.12
918.497	27074.12
918.731	26999.12
918.965	26948.12
919.2	26909.12
919.434	26824.12
919.668	26746.12
919.903	26677.12
920.137	26595.12
920.371	26303.12
920.605	26300.12
920.839	25930.12
921.073	25734.12
921.307	25635.12
921.541	25403.12
921.775	25334.12
922.009	25111.12
922.243	25073.12
922.476	25017.12
922.71	25085.12
922.944	24876.12
923.177	24895.12
923.411	24794.12
923.644	24752.12
923.878	24705.12
924.111	24649.12
924.345	24349.12
924.578	24269.12
924.811	24165.12
925.045	23802.12
925.278	23727.12
925.511	23668.12
925.744	23356.12
925.977	23214.12
926.21	23044.12
926.443	22881.12
926.676	22644.12
926.909	22395.12
927.142	22220.12
927.375	22009.12
927.608	21955.12
927.841	21856.12
928.073	21703.12
928.306	21642.12
928.539	21580.12
928.771	21551.12
929.004	21538.12
929.236	21546.12
929.469	21502.12
929.701	21616.12
929.933	21580.12
930.166	21494.12
930.398	21468.12
930.63	21389.12
930.862	21341.12
931.094	21164.12
931.327	21086.12
931.559	20920.12
931.791	20680.12
932.023	20725.12
932.255	20516.12
932.486	20252.12
932.718	20097.12
932.95	19955.12
933.182	19859.12
933.413	19703.12
933.645	19782.12
933.877	19595.12
934.108	19441.12
934.34	19296.12
934.571	19253.12
934.803	19174.12
935.034	19106.12
935.265	19028.12
935.497	18943.12
935.728	18795.12
935.959	18821.12
936.19	18688.12
936.422	18572.12
936.653	18558.12
936.884	18476.12
937.115	18253.12
937.346	18145.12
937.577	18032.12
937.807	17862.12
938.038	17883.12
938.269	17812.12
938.5	17661.12
938.73	17719.12
938.961	17633.12
939.192	17619.12
939.422	17571.12
939.653	17562.12
939.883	17517.12
940.114	17461.12
940.344	17324.12
940.574	17263.12
940.805	17187.12
941.035	17070.12
941.265	17017.12
941.495	16875.12
941.726	16730.12
941.956	16606.12
942.186	16492.12
942.416	16327.12
942.646	16258.12
942.876	16004.12
943.105	15911.12
943.335	15727.12
943.565	15653.12
943.795	15530.12
944.024	15396.12
944.254	15282.12
944.484	15140.12
944.713	15181.12
944.943	15128.12
945.172	14940.12
945.402	14925.12
945.631	14892.12
945.86	14861.12
946.09	14801.12
946.319	14836.12
946.548	14867.12
946.777	14787.12
947.006	14681.12
947.235	14567.12
947.465	14558.12
947.694	14476.12
947.922	14259.12
948.151	14260.12
948.38	14139.12
948.609	13997.12
948.838	13863.12
949.067	13774.12
949.295	13662.12
949.524	13625.12
949.752	13567.12
949.981	13447.12
950.21	13312.12
950.438	13221.12
950.666	13084.12
950.895	13045.12
951.123	12981.12
951.351	12859.12
951.58	12815.12
951.808	12729.12
952.036	12734.12
952.264	12623.12
952.492	12550.12
952.72	12455.12
952.948	12365.12
953.176	12284.12
953.404	12198.12
953.632	12111.12
953.86	12018.12
954.088	11942.12
954.315	11824.12
954.543	11806.12
954.771	11710.12
954.998	11598.12
955.226	11598.12
955.453	11518.12
955.681	11569.12
955.908	11411.12
956.135	11426.12
956.363	11387.12
956.59	11357.12
956.817	11353.12
957.045	11268.12
957.272	11292.12
957.499	11176.12
957.726	11068.12
957.953	10978.12
958.18	10976.12
958.407	10965.12
958.634	10911.12
958.861	10782.12
959.087	10684.12
959.314	10696.12
959.541	10577.12
959.767	10574.12
959.994	10335.12
960.221	10345.12
960.447	10153.12
960.674	10179.12
960.9	10054.12
961.127	10066.12
961.353	9898.12
961.579	9845.12
961.806	9798.12
962.032	9726.12
962.258	9653.12
962.484	9606.12
962.71	9633.12
962.936	9604.12
963.162	9507.12
963.388	9501.12
963.614	9476.12
963.84	9391.12
964.066	9493.12
964.292	9363.12
964.518	9330.12
964.743	9302.12
964.969	9209.12
965.195	9182.12
965.42	9169.12
965.646	9061.12
965.871	9038.12
966.097	9017.12
966.322	8962.12
966.547	8967.12
966.773	8846.12
966.998	8791.12
967.223	8726.12
967.448	8678.12
967.674	8666.12
967.899	8615.12
968.124	8542.12
968.349	8419.12
968.574	8479.12
968.799	8386.12
969.024	8305.12
969.248	8325.12
969.473	8198.12
969.698	8189.12
969.923	8193.12
970.147	8135.12
970.372	8074.12
970.596	7999.12
970.821	7993.12
971.046	7865.12
971.27	7880.12
971.494	7777.12
971.719	7732.12
971.943	7655.12
972.167	7565.12
972.392	7566.12
972.616	7468.12
972.84	7488.12
973.064	7377.12
973.288	7400.12
973.512	7381.12
973.736	7336.12
973.96	7333.12
974.184	7300.12
974.408	7249.12
974.631	7201.12
974.855	7147.12
975.079	7167.12
975.303	7114.12
975.526	7069.12
975.75	7073.12
975.973	7042.12
976.197	6990.12
976.42	6910.12
976.644	6992.12
976.867	6838.12
977.09	6838.12
977.313	6747.12
977.537	6746.12
977.76	6662.12
977.983	6618.12
978.206	6528.12
978.429	6506.12
978.652	6482.12
978.875	6410.12
979.098	6388.12
979.321	6370.12
979.544	6285.12
979.767	6261.12
979.989	6198.12
980.212	6184.12
980.435	6157.12
980.657	6053.12
980.88	6079.12
981.102	6018.12
981.325	6024.12
981.547	5951.12
981.77	5930.12
981.992	5892.12
982.214	5865.12
982.437	5793.12
982.659	5786.12
982.881	5779.12
983.103	5759.12
983.325	5714.12
983.547	5701.12
983.769	5644.12
983.991	5613.12
984.213	5659.12
984.435	5586.12
984.657	5568.12
984.879	5475.12
985.1	5484.12
985.322	5440.12
985.544	5412.12
985.765	5423.12
985.987	5371.12
986.208	5328.12
986.43	5316.12
986.651	5321.12
986.873	5255.12
987.094	5267.12
987.315	5174.12
987.536	5156.12
987.758	5141.12
987.979	5064.12
988.2	5045.12
988.421	4988.12
988.642	5003.12
988.863	4918.12
989.084	4889.12
989.305	4866.12
989.526	4807.12
989.747	4784.12
989.967	4767.12
990.188	4709.12
990.409	4614.12
990.629	4677.12
990.85	4611.12
991.071	4561.12
991.291	4484.12
991.512	4526.12
991.732	4484.12
991.952	4464.12
992.173	4466.12
992.393	4457.12
992.613	4411.12
992.834	4429.12
993.054	4397.12
993.274	4335.12
993.494	4347.12
993.714	4324.12
993.934	4315.12
994.154	4267.12
994.374	4271.12
994.594	4258.12
994.813	4246.12
995.033	4204.12
995.253	4190.12
995.473	4146.12
995.692	4158.12
995.912	4114.12
996.131	4098.12
996.351	4043.12
996.57	4038.12
996.79	4012.12
997.009	3919.12
997.228	3957.12
997.448	3803.12
997.667	3839.12
997.886	3776.12
998.105	3810.12
998.325	3714.12
998.544	3710.12
998.763	3639.12
998.982	3659.12
999.201	3651.12
999.419	3613.12
999.638	3570.12
999.857	3588.12
1000.076	3564.12
1000.295	3514.12
1000.513	3496.12
1000.732	3512.12
1000.95	3458.12
1001.169	3450.12
1001.388	3408.12
1001.606	3416.12
1001.824	3387.12
1002.043	3410.12
1002.261	3370.12
1002.479	3347.12
1002.698	3321.12
1002.916	3341.12
1003.134	3311.12
1003.352	3267.12
1003.57	3253.12
1003.788	3232.12
1004.006	3224.12
1004.224	3210.12
1004.442	3159.12
1004.66	3162.12
1004.878	3185.12
1005.095	3113.12
1005.313	3181.12
1005.531	3095.12
1005.748	3109.12
1005.966	3163.12
1006.184	3070.12
1006.401	3058.12
1006.618	3025.12
1006.836	3014.12
1007.053	3040.12
1007.271	2974.12
1007.488	2956.12
1007.705	3034.12
1007.922	2942.12
1008.139	2934.12
1008.357	2922.12
1008.574	2934.12
1008.791	2902.12
1009.008	2975.12
1009.225	2903.12
1009.441	2975.12
1009.658	2963.12
1009.875	2916.12
1010.092	2962.12
1010.309	2873.12
1010.525	2840.12
1010.742	2828.12
1010.958	2806.12
1011.175	2736.12
1011.391	2762.12
1011.608	2722.12
1011.824	2725.12
1012.041	2720.12
1012.257	2670.12
1012.473	2632.12
1012.689	2608.12
1012.906	2597.12
1013.122	2574.12
1013.338	2534.12
1013.554	2555.12
1013.77	2584.12
1013.986	2569.12
1014.202	2586.12
1014.418	2631.12
1014.634	2664.12
1014.849	2659.12
1015.065	2667.12
1015.281	2687.12
1015.496	2668.12
1015.712	2640.12
1015.928	2589.12
1016.143	2560.12
1016.359	2526.12
1016.574	2483.12
1016.79	2439.12
1017.005	2403.12
1017.22	2376.12
1017.435	2319.12
1017.651	2287.12
1017.866	2223.12
1018.081	2223.12
1018.296	2166.12
1018.511	2144.12
1018.726	2130.12
1018.941	2115.12
1019.156	2102.12
1019.371	2087.12
1019.586	2080.12
1019.801	2059.12
1020.015	2038.12
1020.23	2031.12
1020.445	1989.12
1020.659	2001.12
1020.874	1963.12
1021.088	1919.12
1021.303	1878.12
1021.517	1886.12
1021.732	1846.12
1021.946	1874.12
1022.16	1841.12
1022.375	1807.12
1022.589	1810.12
1022.803	1759.12
1023.017	1723.12
1023.231	1692.12
1023.445	1675.12
1023.659	1618.12
1023.873	1602.12
1024.087	1566.12
1024.301	1554.12
1024.515	1504.12
1024.729	1521.12
1024.942	1487.12
1025.156	1449.12
1025.37	1425.12
1025.583	1428.12
1025.797	1378.12
1026.01	1373.12
1026.224	1304.12
1026.437	1303.12
1026.651	1261.12
1026.864	1220.12
1027.077	1182.12
1027.291	1145.12
1027.504	1119.12
1027.717	1084.12
1027.93	1043.12
1028.143	1027.12
1028.356	1011.12
1028.569	947.12
1028.782	893.12
1028.995	-0.88
1029.208	-1.88
1029.421	-3.88
1029.634	-2.88
