Data from QEP037381__128__15-10-43-039.txt Node

Date: Mon Mar 14 15:10:43 EDT 2022
User: dcclab
Spectrometer: QEP03738
Trigger mode: 4
Integration Time (sec): 1.500000E0
Scans to average: 1
Electric dark correction enabled: true
Nonlinearity correction enabled: false
Boxcar width: 0
XAxis mode: Wavelengths
Number of Pixels in Spectrum: 1044
>>>>>Begin Spectral Data<<<<<
783.959	10.25
784.218	-2.75
784.476	-3.75
784.734	-1.75
784.992	271.25
785.251	270.25
785.509	266.25
785.767	253.25
786.025	270.25
786.283	273.25
786.541	271.25
786.798	276.25
787.056	264.25
787.314	261.25
787.572	277.25
787.83	271.25
788.087	281.25
788.345	289.25
788.602	296.25
788.86	288.25
789.117	293.25
789.375	281.25
789.632	292.25
789.89	294.25
790.147	317.25
790.404	334.25
790.661	318.25
790.919	333.25
791.176	333.25
791.433	345.25
791.69	353.25
791.947	368.25
792.204	358.25
792.461	377.25
792.718	391.25
792.974	401.25
793.231	413.25
793.488	439.25
793.745	450.25
794.001	482.25
794.258	530.25
794.514	526.25
794.771	554.25
795.027	568.25
795.284	633.25
795.54	678.25
795.797	731.25
796.053	812.25
796.309	846.25
796.565	939.25
796.822	1055.25
797.078	1224.25
797.334	1425.25
797.59	1728.25
797.846	2160.25
798.102	2845.25
798.358	3912.25
798.614	5522.25
798.869	8151.25
799.125	12050.25
799.381	17846.25
799.637	25261.25
799.892	34435.25
800.148	44293.25
800.403	54259.25
800.659	62530.25
800.914	69019.25
801.17	73235.25
801.425	76443.25
801.68	78164.25
801.936	79855.25
802.191	81660.25
802.446	83068.25
802.701	84627.25
802.957	86536.25
803.212	88110.25
803.467	89570.25
803.722	91296.25
803.977	92948.25
804.232	94631.25
804.486	96498.25
804.741	97854.25
804.996	99506.25
805.251	101165.25
805.505	102703.25
805.76	104426.25
806.015	105605.25
806.269	106647.25
806.524	107962.25
806.778	108822.25
807.033	109356.25
807.287	110657.25
807.541	111826.25
807.796	112801.25
808.05	114135.25
808.304	114789.25
808.558	115555.25
808.812	116139.25
809.066	117146.25
809.32	117707.25
809.574	118315.25
809.828	118843.25
810.082	119680.25
810.336	120418.25
810.59	121402.25
810.844	122656.25
811.097	124088.25
811.351	125485.25
811.605	127085.25
811.858	129079.25
812.112	130991.25
812.365	132958.25
812.619	134725.25
812.872	136509.25
813.126	137987.25
813.379	139641.25
813.632	140919.25
813.885	142523.25
814.139	144135.25
814.392	146352.25
814.645	148666.25
814.898	150967.25
815.151	153333.25
815.404	155868.25
815.657	158479.25
815.91	160289.25
816.163	162073.25
816.416	163637.25
816.668	164706.25
816.921	165231.25
817.174	165469.25
817.426	165453.25
817.679	165079.25
817.931	164475.25
818.184	164347.25
818.436	164010.25
818.689	164106.25
818.941	163982.25
819.194	164333.25
819.446	164729.25
819.698	165392.25
819.95	165701.25
820.202	166020.25
820.455	166428.25
820.707	166821.25
820.959	166473.25
821.211	166265.25
821.462	166035.25
821.714	165441.25
821.966	164821.25
822.218	163848.25
822.47	162684.25
822.722	161650.25
822.973	160997.25
823.225	160341.25
823.476	160121.25
823.728	160329.25
823.979	159884.25
824.231	159739.25
824.482	159235.25
824.734	159037.25
824.985	159206.25
825.236	159117.25
825.487	158101.25
825.739	157354.25
825.99	156631.25
826.241	155903.25
826.492	155037.25
826.743	154170.25
826.994	153263.25
827.245	152506.25
827.496	151734.25
827.747	151583.25
827.997	151451.25
828.248	151323.25
828.499	151343.25
828.75	151216.25
829	150704.25
829.251	150431.25
829.501	150345.25
829.752	149360.25
830.002	148522.25
830.253	147422.25
830.503	146416.25
830.753	145307.25
831.004	144336.25
831.254	143290.25
831.504	142962.25
831.754	142682.25
832.004	142389.25
832.254	142357.25
832.504	142372.25
832.754	142354.25
833.004	141855.25
833.254	141576.25
833.504	140769.25
833.754	140319.25
834.003	139359.25
834.253	138770.25
834.503	138020.25
834.752	136732.25
835.002	136015.25
835.252	135485.25
835.501	134802.25
835.75	134010.25
836	133857.25
836.249	133502.25
836.499	133325.25
836.748	132886.25
836.997	132619.25
837.246	132528.25
837.495	132869.25
837.744	132694.25
837.993	132621.25
838.242	132467.25
838.491	132137.25
838.74	131242.25
838.989	129973.25
839.238	129120.25
839.487	128183.25
839.736	127696.25
839.984	126593.25
840.233	125900.25
840.482	125439.25
840.73	125099.25
840.979	124312.25
841.227	123771.25
841.476	123299.25
841.724	122937.25
841.972	122466.25
842.221	121908.25
842.469	121471.25
842.717	120882.25
842.965	120127.25
843.213	120117.25
843.461	119193.25
843.71	118896.25
843.958	118046.25
844.205	118024.25
844.453	117446.25
844.701	117220.25
844.949	117343.25
845.197	116918.25
845.445	116833.25
845.692	117063.25
845.94	116775.25
846.188	116487.25
846.435	116196.25
846.683	115932.25
846.93	115332.25
847.178	114409.25
847.425	113128.25
847.672	112427.25
847.92	111473.25
848.167	110362.25
848.414	109361.25
848.661	108412.25
848.908	107842.25
849.155	107612.25
849.402	107183.25
849.649	107223.25
849.896	107167.25
850.143	107618.25
850.39	107886.25
850.637	107912.25
850.884	107635.25
851.131	107384.25
851.377	107265.25
851.624	106827.25
851.87	106229.25
852.117	105574.25
852.364	104851.25
852.61	104225.25
852.856	103697.25
853.103	103279.25
853.349	102686.25
853.595	102243.25
853.842	101330.25
854.088	101503.25
854.334	101323.25
854.58	101436.25
854.826	100979.25
855.072	100064.25
855.318	99621.25
855.564	98440.25
855.81	97504.25
856.056	96804.25
856.302	95764.25
856.548	95397.25
856.793	94714.25
857.039	94343.25
857.285	93772.25
857.53	93761.25
857.776	93773.25
858.021	93889.25
858.267	94223.25
858.512	94437.25
858.758	94265.25
859.003	94503.25
859.248	94286.25
859.493	94187.25
859.739	93929.25
859.984	93361.25
860.229	92862.25
860.474	92498.25
860.719	91740.25
860.964	91110.25
861.209	90300.25
861.454	89580.25
861.699	89352.25
861.943	88855.25
862.188	88238.25
862.433	87972.25
862.678	87244.25
862.922	87357.25
863.167	87147.25
863.411	86868.25
863.656	86322.25
863.9	86081.25
864.145	86008.25
864.389	85299.25
864.634	84880.25
864.878	84431.25
865.122	84296.25
865.366	84053.25
865.61	83665.25
865.855	83671.25
866.099	83189.25
866.343	83080.25
866.587	82680.25
866.831	82394.25
867.074	82458.25
867.318	82404.25
867.562	82197.25
867.806	82192.25
868.05	81819.25
868.293	81959.25
868.537	81456.25
868.78	81337.25
869.024	80827.25
869.267	80406.25
869.511	79400.25
869.754	78776.25
869.998	78006.25
870.241	77068.25
870.484	76695.25
870.728	76261.25
870.971	75771.25
871.214	75382.25
871.457	75057.25
871.7	75160.25
871.943	75062.25
872.186	75030.25
872.429	75196.25
872.672	75279.25
872.915	75033.25
873.158	75027.25
873.4	74719.25
873.643	74414.25
873.886	74143.25
874.128	73871.25
874.371	73610.25
874.613	73385.25
874.856	72971.25
875.098	72689.25
875.341	72680.25
875.583	72425.25
875.825	72108.25
876.068	71876.25
876.31	71245.25
876.552	70575.25
876.794	69908.25
877.036	69329.25
877.278	68639.25
877.52	68583.25
877.762	68123.25
878.004	68054.25
878.246	67729.25
878.488	67577.25
878.73	67512.25
878.972	67149.25
879.213	66914.25
879.455	66887.25
879.697	66818.25
879.938	66714.25
880.18	66227.25
880.421	65659.25
880.663	65482.25
880.904	65418.25
881.145	65408.25
881.387	65414.25
881.628	65377.25
881.869	65143.25
882.11	64956.25
882.352	64956.25
882.593	64820.25
882.834	64517.25
883.075	64179.25
883.316	63930.25
883.557	63740.25
883.797	63528.25
884.038	62807.25
884.279	62203.25
884.52	61580.25
884.761	61048.25
885.001	60555.25
885.242	60048.25
885.482	59454.25
885.723	59121.25
885.963	59086.25
886.204	58625.25
886.444	58451.25
886.685	58211.25
886.925	57886.25
887.165	57746.25
887.405	57364.25
887.646	57390.25
887.886	57251.25
888.126	56910.25
888.366	56796.25
888.606	56778.25
888.846	57029.25
889.086	56989.25
889.326	56950.25
889.565	57087.25
889.805	56772.25
890.045	56669.25
890.285	56333.25
890.524	56020.25
890.764	56076.25
891.003	55712.25
891.243	55010.25
891.482	54379.25
891.722	53974.25
891.961	53488.25
892.201	53218.25
892.44	52882.25
892.679	52629.25
892.918	52459.25
893.158	52329.25
893.397	52271.25
893.636	51961.25
893.875	51776.25
894.114	51611.25
894.353	51303.25
894.592	51067.25
894.831	50844.25
895.069	50678.25
895.308	50197.25
895.547	49644.25
895.786	49548.25
896.024	49371.25
896.263	49205.25
896.501	49182.25
896.74	49019.25
896.978	48903.25
897.217	48762.25
897.455	48677.25
897.694	48478.25
897.932	48350.25
898.17	48028.25
898.408	48111.25
898.646	47802.25
898.885	47463.25
899.123	47196.25
899.361	46897.25
899.599	46472.25
899.837	46176.25
900.075	45940.25
900.312	45607.25
900.55	45306.25
900.788	44948.25
901.026	44436.25
901.263	44098.25
901.501	43724.25
901.739	43454.25
901.976	43211.25
902.214	43019.25
902.451	42775.25
902.689	42632.25
902.926	42463.25
903.163	42359.25
903.401	42537.25
903.638	42466.25
903.875	42397.25
904.112	42368.25
904.349	42180.25
904.586	42064.25
904.823	41962.25
905.06	41503.25
905.297	41458.25
905.534	41013.25
905.771	40659.25
906.008	40488.25
906.245	40085.25
906.481	39751.25
906.718	39734.25
906.955	39479.25
907.191	39454.25
907.428	39125.25
907.664	38842.25
907.901	38787.25
908.137	38539.25
908.374	38586.25
908.61	38168.25
908.846	38059.25
909.083	37799.25
909.319	37661.25
909.555	37302.25
909.791	37014.25
910.027	36449.25
910.263	36327.25
910.499	36054.25
910.735	35655.25
910.971	35561.25
911.207	35283.25
911.443	34963.25
911.678	34803.25
911.914	34654.25
912.15	34588.25
912.385	34549.25
912.621	34345.25
912.857	34417.25
913.092	34390.25
913.328	34238.25
913.563	34171.25
913.798	34092.25
914.034	34094.25
914.269	33791.25
914.504	33794.25
914.739	33614.25
914.975	33389.25
915.21	33074.25
915.445	32802.25
915.68	32680.25
915.915	32337.25
916.15	31822.25
916.384	31442.25
916.619	31304.25
916.854	30850.25
917.089	30808.25
917.324	30513.25
917.558	30393.25
917.793	30104.25
918.028	29893.25
918.262	29842.25
918.497	29943.25
918.731	29861.25
918.965	29690.25
919.2	29490.25
919.434	29487.25
919.668	29523.25
919.903	29379.25
920.137	29229.25
920.371	28992.25
920.605	28889.25
920.839	28642.25
921.073	28467.25
921.307	28225.25
921.541	28076.25
921.775	27787.25
922.009	27765.25
922.243	27557.25
922.476	27614.25
922.71	27566.25
922.944	27443.25
923.177	27381.25
923.411	27255.25
923.644	27150.25
923.878	26952.25
924.111	26921.25
924.345	26884.25
924.578	26716.25
924.811	26583.25
925.045	26374.25
925.278	26166.25
925.511	26005.25
925.744	25778.25
925.977	25538.25
926.21	25332.25
926.443	25023.25
926.676	24907.25
926.909	24668.25
927.142	24462.25
927.375	24289.25
927.608	24067.25
927.841	24034.25
928.073	23933.25
928.306	23769.25
928.539	23865.25
928.771	23757.25
929.004	23507.25
929.236	23656.25
929.469	23701.25
929.701	23724.25
929.933	23730.25
930.166	23643.25
930.398	23579.25
930.63	23542.25
930.862	23396.25
931.094	23371.25
931.327	23163.25
931.559	22953.25
931.791	22830.25
932.023	22627.25
932.255	22537.25
932.486	22270.25
932.718	22102.25
932.95	21991.25
933.182	21856.25
933.413	21820.25
933.645	21612.25
933.877	21491.25
934.108	21501.25
934.34	21300.25
934.571	21277.25
934.803	21148.25
935.034	21019.25
935.265	20908.25
935.497	20899.25
935.728	20761.25
935.959	20630.25
936.19	20582.25
936.422	20478.25
936.653	20345.25
936.884	20207.25
937.115	20065.25
937.346	19848.25
937.577	19737.25
937.807	19618.25
938.038	19684.25
938.269	19525.25
938.5	19460.25
938.73	19441.25
938.961	19386.25
939.192	19360.25
939.422	19345.25
939.653	19201.25
939.883	19113.25
940.114	19060.25
940.344	19025.25
940.574	19019.25
940.805	18852.25
941.035	18753.25
941.265	18557.25
941.495	18509.25
941.726	18366.25
941.956	18130.25
942.186	18019.25
942.416	17879.25
942.646	17794.25
942.876	17646.25
943.105	17407.25
943.335	17252.25
943.565	17195.25
943.795	17052.25
944.024	16858.25
944.254	16802.25
944.484	16722.25
944.713	16551.25
944.943	16445.25
945.172	16397.25
945.402	16405.25
945.631	16350.25
945.86	16302.25
946.09	16265.25
946.319	16222.25
946.548	16151.25
946.777	16104.25
947.006	16026.25
947.235	16009.25
947.465	15890.25
947.694	15734.25
947.922	15700.25
948.151	15556.25
948.38	15488.25
948.609	15243.25
948.838	15208.25
949.067	15147.25
949.295	15012.25
949.524	14935.25
949.752	14802.25
949.981	14708.25
950.21	14590.25
950.438	14493.25
950.666	14409.25
950.895	14253.25
951.123	14211.25
951.351	14086.25
951.58	14019.25
951.808	13868.25
952.036	13924.25
952.264	13780.25
952.492	13750.25
952.72	13698.25
952.948	13586.25
953.176	13394.25
953.404	13441.25
953.632	13181.25
953.86	13124.25
954.088	12984.25
954.315	12945.25
954.543	12839.25
954.771	12711.25
954.998	12653.25
955.226	12662.25
955.453	12583.25
955.681	12597.25
955.908	12524.25
956.135	12474.25
956.363	12468.25
956.59	12350.25
956.817	12389.25
957.045	12379.25
957.272	12282.25
957.499	12189.25
957.726	12127.25
957.953	12095.25
958.18	12090.25
958.407	11920.25
958.634	11846.25
958.861	11840.25
959.087	11706.25
959.314	11585.25
959.541	11532.25
959.767	11468.25
959.994	11379.25
960.221	11263.25
960.447	11211.25
960.674	11111.25
960.9	10977.25
961.127	10850.25
961.353	10777.25
961.579	10765.25
961.806	10698.25
962.032	10589.25
962.258	10558.25
962.484	10464.25
962.71	10473.25
962.936	10434.25
963.162	10424.25
963.388	10325.25
963.614	10353.25
963.84	10311.25
964.066	10264.25
964.292	10182.25
964.518	10231.25
964.743	10164.25
964.969	10112.25
965.195	10022.25
965.42	10053.25
965.646	9934.25
965.871	9831.25
966.097	9758.25
966.322	9740.25
966.547	9660.25
966.773	9700.25
966.998	9602.25
967.223	9559.25
967.448	9469.25
967.674	9430.25
967.899	9385.25
968.124	9248.25
968.349	9253.25
968.574	9183.25
968.799	9133.25
969.024	9076.25
969.248	9008.25
969.473	8973.25
969.698	8864.25
969.923	8849.25
970.147	8699.25
970.372	8788.25
970.596	8698.25
970.821	8612.25
971.046	8622.25
971.27	8548.25
971.494	8429.25
971.719	8368.25
971.943	8302.25
972.167	8237.25
972.392	8204.25
972.616	8148.25
972.84	8074.25
973.064	8081.25
973.288	8018.25
973.512	7992.25
973.736	7974.25
973.96	7987.25
974.184	7891.25
974.408	7916.25
974.631	7911.25
974.855	7912.25
975.079	7738.25
975.303	7744.25
975.526	7775.25
975.75	7681.25
975.973	7636.25
976.197	7619.25
976.42	7549.25
976.644	7481.25
976.867	7457.25
977.09	7417.25
977.313	7333.25
977.537	7293.25
977.76	7214.25
977.983	7158.25
978.206	7119.25
978.429	7119.25
978.652	7027.25
978.875	6973.25
979.098	6913.25
979.321	6886.25
979.544	6819.25
979.767	6796.25
979.989	6732.25
980.212	6656.25
980.435	6699.25
980.657	6576.25
980.88	6580.25
981.102	6547.25
981.325	6513.25
981.547	6497.25
981.77	6375.25
981.992	6385.25
982.214	6337.25
982.437	6341.25
982.659	6344.25
982.881	6256.25
983.103	6228.25
983.325	6241.25
983.547	6202.25
983.769	6084.25
983.991	6159.25
984.213	6043.25
984.435	6094.25
984.657	6005.25
984.879	6026.25
985.1	5951.25
985.322	5913.25
985.544	5886.25
985.765	5883.25
985.987	5848.25
986.208	5810.25
986.43	5821.25
986.651	5763.25
986.873	5698.25
987.094	5670.25
987.315	5639.25
987.536	5605.25
987.758	5524.25
987.979	5523.25
988.2	5457.25
988.421	5441.25
988.642	5363.25
988.863	5322.25
989.084	5294.25
989.305	5266.25
989.526	5229.25
989.747	5179.25
989.967	5130.25
990.188	5098.25
990.409	5055.25
990.629	5108.25
990.85	5070.25
991.071	4955.25
991.291	4940.25
991.512	4867.25
991.732	4871.25
991.952	4825.25
992.173	4797.25
992.393	4844.25
992.613	4787.25
992.834	4797.25
993.054	4807.25
993.274	4713.25
993.494	4723.25
993.714	4696.25
993.934	4701.25
994.154	4635.25
994.374	4636.25
994.594	4638.25
994.813	4607.25
995.033	4565.25
995.253	4510.25
995.473	4535.25
995.692	4495.25
995.912	4454.25
996.131	4383.25
996.351	4377.25
996.57	4348.25
996.79	4324.25
997.009	4253.25
997.228	4218.25
997.448	4217.25
997.667	4133.25
997.886	4120.25
998.105	4092.25
998.325	3998.25
998.544	4069.25
998.763	3969.25
998.982	3982.25
999.201	3924.25
999.419	3889.25
999.638	3845.25
999.857	3861.25
1000.076	3823.25
1000.295	3798.25
1000.513	3759.25
1000.732	3799.25
1000.95	3718.25
1001.169	3756.25
1001.388	3727.25
1001.606	3697.25
1001.824	3682.25
1002.043	3632.25
1002.261	3644.25
1002.479	3640.25
1002.698	3640.25
1002.916	3555.25
1003.134	3547.25
1003.352	3556.25
1003.57	3543.25
1003.788	3537.25
1004.006	3485.25
1004.224	3473.25
1004.442	3437.25
1004.66	3410.25
1004.878	3363.25
1005.095	3375.25
1005.313	3354.25
1005.531	3372.25
1005.748	3348.25
1005.966	3384.25
1006.184	3287.25
1006.401	3251.25
1006.618	3260.25
1006.836	3231.25
1007.053	3243.25
1007.271	3199.25
1007.488	3203.25
1007.705	3189.25
1007.922	3163.25
1008.139	3148.25
1008.357	3135.25
1008.574	3119.25
1008.791	3161.25
1009.008	3170.25
1009.225	3165.25
1009.441	3101.25
1009.658	3174.25
1009.875	3155.25
1010.092	3124.25
1010.309	3088.25
1010.525	3088.25
1010.742	3072.25
1010.958	2970.25
1011.175	3013.25
1011.391	2960.25
1011.608	2907.25
1011.824	2950.25
1012.041	2850.25
1012.257	2840.25
1012.473	2831.25
1012.689	2816.25
1012.906	2795.25
1013.122	2773.25
1013.338	2725.25
1013.554	2753.25
1013.77	2738.25
1013.986	2755.25
1014.202	2769.25
1014.418	2801.25
1014.634	2819.25
1014.849	2817.25
1015.065	2801.25
1015.281	2840.25
1015.496	2837.25
1015.712	2790.25
1015.928	2746.25
1016.143	2729.25
1016.359	2716.25
1016.574	2629.25
1016.79	2597.25
1017.005	2584.25
1017.22	2530.25
1017.435	2462.25
1017.651	2456.25
1017.866	2397.25
1018.081	2328.25
1018.296	2295.25
1018.511	2311.25
1018.726	2288.25
1018.941	2251.25
1019.156	2201.25
1019.371	2190.25
1019.586	2224.25
1019.801	2187.25
1020.015	2166.25
1020.23	2158.25
1020.445	2137.25
1020.659	2094.25
1020.874	2117.25
1021.088	2072.25
1021.303	2015.25
1021.517	2021.25
1021.732	2002.25
1021.946	1964.25
1022.16	1987.25
1022.375	1944.25
1022.589	1899.25
1022.803	1899.25
1023.017	1854.25
1023.231	1800.25
1023.445	1811.25
1023.659	1778.25
1023.873	1711.25
1024.087	1674.25
1024.301	1656.25
1024.515	1642.25
1024.729	1613.25
1024.942	1571.25
1025.156	1597.25
1025.37	1511.25
1025.583	1486.25
1025.797	1460.25
1026.01	1446.25
1026.224	1397.25
1026.437	1387.25
1026.651	1346.25
1026.864	1279.25
1027.077	1245.25
1027.291	1251.25
1027.504	1208.25
1027.717	1182.25
1027.93	1126.25
1028.143	1106.25
1028.356	1094.25
1028.569	1023.25
1028.782	955.25
1028.995	2.25
1029.208	-1.75
1029.421	-1.75
1029.634	-0.75
