Data from QEP037381__126__15-10-37-037.txt Node

Date: Mon Mar 14 15:10:37 EDT 2022
User: dcclab
Spectrometer: QEP03738
Trigger mode: 4
Integration Time (sec): 1.500000E0
Scans to average: 1
Electric dark correction enabled: true
Nonlinearity correction enabled: false
Boxcar width: 0
XAxis mode: Wavelengths
Number of Pixels in Spectrum: 1044
>>>>>Begin Spectral Data<<<<<
783.959	10.38
784.218	1.38
784.476	2.38
784.734	-4.62
784.992	269.38
785.251	265.38
785.509	260.38
785.767	270.38
786.025	267.38
786.283	262.38
786.541	265.38
786.798	277.38
787.056	271.38
787.314	272.38
787.572	283.38
787.83	284.38
788.087	294.38
788.345	290.38
788.602	299.38
788.86	291.38
789.117	312.38
789.375	288.38
789.632	314.38
789.89	301.38
790.147	315.38
790.404	315.38
790.661	335.38
790.919	348.38
791.176	328.38
791.433	353.38
791.69	347.38
791.947	385.38
792.204	387.38
792.461	395.38
792.718	393.38
792.974	416.38
793.231	429.38
793.488	444.38
793.745	459.38
794.001	480.38
794.258	509.38
794.514	539.38
794.771	577.38
795.027	594.38
795.284	644.38
795.54	698.38
795.797	735.38
796.053	812.38
796.309	877.38
796.565	953.38
796.822	1069.38
797.078	1229.38
797.334	1461.38
797.59	1743.38
797.846	2195.38
798.102	2868.38
798.358	3921.38
798.614	5693.38
798.869	8236.38
799.125	12222.38
799.381	18125.38
799.637	25715.38
799.892	35089.38
800.148	45106.38
800.403	55199.38
800.659	63668.38
800.914	70218.38
801.17	74681.38
801.425	77654.38
801.68	79676.38
801.936	81357.38
802.191	82980.38
802.446	84740.38
802.701	86406.38
802.957	87969.38
803.212	89738.38
803.467	91143.38
803.722	92995.38
803.977	94503.38
804.232	96424.38
804.486	98026.38
804.741	99643.38
804.996	101517.38
805.251	103190.38
805.505	104614.38
805.76	106102.38
806.015	107513.38
806.269	108651.38
806.524	109789.38
806.778	110662.38
807.033	111537.38
807.287	112388.38
807.541	113588.38
807.796	115085.38
808.05	116205.38
808.304	116841.38
808.558	117686.38
808.812	118119.38
809.066	119069.38
809.32	119910.38
809.574	120183.38
809.828	120850.38
810.082	121668.38
810.336	122629.38
810.59	123550.38
810.844	124690.38
811.097	126401.38
811.351	127876.38
811.605	129181.38
811.858	131364.38
812.112	133262.38
812.365	135359.38
812.619	137064.38
812.872	138822.38
813.126	140582.38
813.379	142092.38
813.632	143441.38
813.885	144915.38
814.139	146831.38
814.392	148651.38
814.645	151001.38
814.898	153637.38
815.151	156064.38
815.404	158492.38
815.657	161028.38
815.91	163200.38
816.163	164811.38
816.416	166335.38
816.668	167355.38
816.921	167860.38
817.174	168281.38
817.426	168189.38
817.679	167865.38
817.931	167566.38
818.184	167094.38
818.436	166918.38
818.689	166824.38
818.941	166752.38
819.194	167188.38
819.446	167632.38
819.698	167912.38
819.95	168338.38
820.202	168501.38
820.455	169077.38
820.707	169614.38
820.959	169422.38
821.211	169311.38
821.462	168518.38
821.714	168364.38
821.966	167521.38
822.218	166197.38
822.47	165485.38
822.722	164514.38
822.973	163518.38
823.225	163116.38
823.476	162991.38
823.728	162420.38
823.979	162385.38
824.231	161935.38
824.482	161762.38
824.734	161479.38
824.985	161752.38
825.236	161461.38
825.487	160546.38
825.739	159842.38
825.99	159283.38
826.241	158617.38
826.492	157300.38
826.743	156592.38
826.994	155793.38
827.245	155254.38
827.496	154319.38
827.747	153981.38
827.997	153861.38
828.248	153778.38
828.499	153455.38
828.75	153582.38
829	153142.38
829.251	152701.38
829.501	152538.38
829.752	151987.38
830.002	150966.38
830.253	149668.38
830.503	148860.38
830.753	147677.38
831.004	146481.38
831.254	145578.38
831.504	145637.38
831.754	144932.38
832.004	144774.38
832.254	144523.38
832.504	144622.38
832.754	144599.38
833.004	144073.38
833.254	143685.38
833.504	143022.38
833.754	142094.38
834.003	141593.38
834.253	141003.38
834.503	140182.38
834.752	139022.38
835.002	138356.38
835.252	137236.38
835.501	136416.38
835.75	136305.38
836	136145.38
836.249	135777.38
836.499	135130.38
836.748	134846.38
836.997	134613.38
837.246	134431.38
837.495	134623.38
837.744	134575.38
837.993	134798.38
838.242	134609.38
838.491	134019.38
838.74	133237.38
838.989	131598.38
839.238	131000.38
839.487	130188.38
839.736	129423.38
839.984	128391.38
840.233	127891.38
840.482	127229.38
840.73	126523.38
840.979	126185.38
841.227	125497.38
841.476	125056.38
841.724	124564.38
841.972	123996.38
842.221	123815.38
842.469	123102.38
842.717	122613.38
842.965	121983.38
843.213	121607.38
843.461	121260.38
843.71	120469.38
843.958	119896.38
844.205	119481.38
844.453	119406.38
844.701	118816.38
844.949	118728.38
845.197	118693.38
845.445	118265.38
845.692	118676.38
845.94	118451.38
846.188	118118.38
846.435	118025.38
846.683	117506.38
846.93	116930.38
847.178	116096.38
847.425	115074.38
847.672	114367.38
847.92	113387.38
848.167	112060.38
848.414	110966.38
848.661	110036.38
848.908	109504.38
849.155	109048.38
849.402	108813.38
849.649	108923.38
849.896	108744.38
850.143	109242.38
850.39	109527.38
850.637	109354.38
850.884	109273.38
851.131	109101.38
851.377	108773.38
851.624	108414.38
851.87	107837.38
852.117	107337.38
852.364	106247.38
852.61	105772.38
852.856	105373.38
853.103	104752.38
853.349	104025.38
853.595	103858.38
853.842	102980.38
854.088	102776.38
854.334	102940.38
854.58	103018.38
854.826	102403.38
855.072	101622.38
855.318	100891.38
855.564	99681.38
855.81	98802.38
856.056	98265.38
856.302	97326.38
856.548	96672.38
856.793	95815.38
857.039	95578.38
857.285	95326.38
857.53	94985.38
857.776	95075.38
858.021	95362.38
858.267	95686.38
858.512	95777.38
858.758	95622.38
859.003	95957.38
859.248	95660.38
859.493	95523.38
859.739	95361.38
859.984	94678.38
860.229	94350.38
860.474	93774.38
860.719	93193.38
860.964	92345.38
861.209	91914.38
861.454	91228.38
861.699	90473.38
861.943	89981.38
862.188	89673.38
862.433	89086.38
862.678	88417.38
862.922	88364.38
863.167	88368.38
863.411	88054.38
863.656	87596.38
863.9	87411.38
864.145	87038.38
864.389	86524.38
864.634	86194.38
864.878	85693.38
865.122	85485.38
865.366	85148.38
865.61	84884.38
865.855	84654.38
866.099	84420.38
866.343	83997.38
866.587	83811.38
866.831	83826.38
867.074	83452.38
867.318	83595.38
867.562	83404.38
867.806	83136.38
868.05	83129.38
868.293	83024.38
868.537	82518.38
868.78	82230.38
869.024	82018.38
869.267	81263.38
869.511	80670.38
869.754	79842.38
869.998	79046.38
870.241	78219.38
870.484	77900.38
870.728	77205.38
870.971	76898.38
871.214	76496.38
871.457	76466.38
871.7	76301.38
871.943	76074.38
872.186	76028.38
872.429	76227.38
872.672	76169.38
872.915	76074.38
873.158	75920.38
873.4	75829.38
873.643	75432.38
873.886	75007.38
874.128	74815.38
874.371	74504.38
874.613	74386.38
874.856	74062.38
875.098	73847.38
875.341	73537.38
875.583	73332.38
875.825	73211.38
876.068	72841.38
876.31	72339.38
876.552	71561.38
876.794	70841.38
877.036	70049.38
877.278	69615.38
877.52	69383.38
877.762	68937.38
878.004	68681.38
878.246	68623.38
878.488	68383.38
878.73	68223.38
878.972	68124.38
879.213	68115.38
879.455	67783.38
879.697	67459.38
879.938	67686.38
880.18	67383.38
880.421	66796.38
880.663	66492.38
880.904	66406.38
881.145	66239.38
881.387	66204.38
881.628	66124.38
881.869	65890.38
882.11	65873.38
882.352	65668.38
882.593	65644.38
882.834	65281.38
883.075	64920.38
883.316	64909.38
883.557	64637.38
883.797	64242.38
884.038	63724.38
884.279	62943.38
884.52	62352.38
884.761	61751.38
885.001	61371.38
885.242	60689.38
885.482	60252.38
885.723	60069.38
885.963	59738.38
886.204	59593.38
886.444	59294.38
886.685	58906.38
886.925	58694.38
887.165	58513.38
887.405	58151.38
887.646	58123.38
887.886	57749.38
888.126	57669.38
888.366	57542.38
888.606	57416.38
888.846	57709.38
889.086	57787.38
889.326	57733.38
889.565	57706.38
889.805	57492.38
890.045	57293.38
890.285	57159.38
890.524	57126.38
890.764	56840.38
891.003	56235.38
891.243	55694.38
891.482	55259.38
891.722	54693.38
891.961	54326.38
892.201	53859.38
892.44	53689.38
892.679	53416.38
892.918	53094.38
893.158	52839.38
893.397	52682.38
893.636	52609.38
893.875	52493.38
894.114	52221.38
894.353	52045.38
894.592	51609.38
894.831	51549.38
895.069	51067.38
895.308	50762.38
895.547	50391.38
895.786	50131.38
896.024	49944.38
896.263	50009.38
896.501	49639.38
896.74	49626.38
896.978	49656.38
897.217	49525.38
897.455	49185.38
897.694	49110.38
897.932	48773.38
898.17	48805.38
898.408	48501.38
898.646	48464.38
898.885	48053.38
899.123	47787.38
899.361	47653.38
899.599	47183.38
899.837	46729.38
900.075	46590.38
900.312	46376.38
900.55	45843.38
900.788	45416.38
901.026	45024.38
901.263	44502.38
901.501	44256.38
901.739	43935.38
901.976	43734.38
902.214	43455.38
902.451	43365.38
902.689	43174.38
902.926	43070.38
903.163	43144.38
903.401	43067.38
903.638	42909.38
903.875	42866.38
904.112	42752.38
904.349	42868.38
904.586	42549.38
904.823	42367.38
905.06	42252.38
905.297	41715.38
905.534	41537.38
905.771	41129.38
906.008	40947.38
906.245	40677.38
906.481	40340.38
906.718	40227.38
906.955	40043.38
907.191	39824.38
907.428	39428.38
907.664	39382.38
907.901	39209.38
908.137	38996.38
908.374	38851.38
908.61	38679.38
908.846	38545.38
909.083	38304.38
909.319	38092.38
909.555	37808.38
909.791	37446.38
910.027	37085.38
910.263	36703.38
910.499	36477.38
910.735	36095.38
910.971	35943.38
911.207	35767.38
911.443	35376.38
911.678	35294.38
911.914	35067.38
912.15	34938.38
912.385	34861.38
912.621	34921.38
912.857	34990.38
913.092	34803.38
913.328	34632.38
913.563	34634.38
913.798	34396.38
914.034	34468.38
914.269	34373.38
914.504	34173.38
914.739	33873.38
914.975	33824.38
915.21	33485.38
915.445	33230.38
915.68	32938.38
915.915	32649.38
916.15	32313.38
916.384	31976.38
916.619	31618.38
916.854	31326.38
917.089	31152.38
917.324	30882.38
917.558	30658.38
917.793	30519.38
918.028	30216.38
918.262	30355.38
918.497	30190.38
918.731	30123.38
918.965	30203.38
919.2	30002.38
919.434	29898.38
919.668	29821.38
919.903	29705.38
920.137	29583.38
920.371	29432.38
920.605	29206.38
920.839	28974.38
921.073	28664.38
921.307	28532.38
921.541	28282.38
921.775	28163.38
922.009	28074.38
922.243	27997.38
922.476	27890.38
922.71	27795.38
922.944	27727.38
923.177	27737.38
923.411	27591.38
923.644	27538.38
923.878	27500.38
924.111	27260.38
924.345	27362.38
924.578	27107.38
924.811	26841.38
925.045	26760.38
925.278	26477.38
925.511	26295.38
925.744	26068.38
925.977	25953.38
926.21	25636.38
926.443	25432.38
926.676	25208.38
926.909	25051.38
927.142	24726.38
927.375	24643.38
927.608	24320.38
927.841	24328.38
928.073	24258.38
928.306	24109.38
928.539	23962.38
928.771	24027.38
929.004	24016.38
929.236	23892.38
929.469	23993.38
929.701	23989.38
929.933	23992.38
930.166	23991.38
930.398	23829.38
930.63	23811.38
930.862	23728.38
931.094	23501.38
931.327	23370.38
931.559	23253.38
931.791	22994.38
932.023	22889.38
932.255	22702.38
932.486	22562.38
932.718	22356.38
932.95	22186.38
933.182	22121.38
933.413	21985.38
933.645	21765.38
933.877	21790.38
934.108	21659.38
934.34	21461.38
934.571	21547.38
934.803	21406.38
935.034	21170.38
935.265	21157.38
935.497	21139.38
935.728	21024.38
935.959	20780.38
936.19	20669.38
936.422	20656.38
936.653	20631.38
936.884	20477.38
937.115	20276.38
937.346	20119.38
937.577	19999.38
937.807	19894.38
938.038	19746.38
938.269	19779.38
938.5	19665.38
938.73	19645.38
938.961	19546.38
939.192	19528.38
939.422	19498.38
939.653	19437.38
939.883	19462.38
940.114	19353.38
940.344	19320.38
940.574	19123.38
940.805	19010.38
941.035	18973.38
941.265	18801.38
941.495	18793.38
941.726	18536.38
941.956	18400.38
942.186	18104.38
942.416	18066.38
942.646	17870.38
942.876	17826.38
943.105	17637.38
943.335	17444.38
943.565	17373.38
943.795	17200.38
944.024	17051.38
944.254	16922.38
944.484	16803.38
944.713	16714.38
944.943	16700.38
945.172	16657.38
945.402	16598.38
945.631	16482.38
945.86	16485.38
946.09	16422.38
946.319	16519.38
946.548	16288.38
946.777	16294.38
947.006	16257.38
947.235	16159.38
947.465	16072.38
947.694	16008.38
947.922	15850.38
948.151	15797.38
948.38	15623.38
948.609	15521.38
948.838	15337.38
949.067	15287.38
949.295	15238.38
949.524	15103.38
949.752	14900.38
949.981	14874.38
950.21	14796.38
950.438	14613.38
950.666	14578.38
950.895	14464.38
951.123	14316.38
951.351	14241.38
951.58	14105.38
951.808	14028.38
952.036	14097.38
952.264	13973.38
952.492	13884.38
952.72	13761.38
952.948	13738.38
953.176	13622.38
953.404	13547.38
953.632	13434.38
953.86	13308.38
954.088	13189.38
954.315	13089.38
954.543	12970.38
954.771	12883.38
954.998	12906.38
955.226	12796.38
955.453	12695.38
955.681	12713.38
955.908	12603.38
956.135	12627.38
956.363	12589.38
956.59	12498.38
956.817	12541.38
957.045	12480.38
957.272	12428.38
957.499	12270.38
957.726	12234.38
957.953	12200.38
958.18	12174.38
958.407	12061.38
958.634	12042.38
958.861	11937.38
959.087	11854.38
959.314	11812.38
959.541	11739.38
959.767	11570.38
959.994	11471.38
960.221	11363.38
960.447	11303.38
960.674	11222.38
960.9	11127.38
961.127	11013.38
961.353	10943.38
961.579	10887.38
961.806	10818.38
962.032	10719.38
962.258	10642.38
962.484	10610.38
962.71	10552.38
962.936	10587.38
963.162	10515.38
963.388	10501.38
963.614	10425.38
963.84	10452.38
964.066	10450.38
964.292	10334.38
964.518	10296.38
964.743	10150.38
964.969	10188.38
965.195	10106.38
965.42	10057.38
965.646	10005.38
965.871	9948.38
966.097	9936.38
966.322	9778.38
966.547	9821.38
966.773	9758.38
966.998	9671.38
967.223	9655.38
967.448	9577.38
967.674	9542.38
967.899	9465.38
968.124	9471.38
968.349	9374.38
968.574	9291.38
968.799	9170.38
969.024	9216.38
969.248	9088.38
969.473	9113.38
969.698	8970.38
969.923	8997.38
970.147	8891.38
970.372	8833.38
970.596	8758.38
970.821	8724.38
971.046	8605.38
971.27	8627.38
971.494	8501.38
971.719	8476.38
971.943	8433.38
972.167	8394.38
972.392	8330.38
972.616	8229.38
972.84	8216.38
973.064	8175.38
973.288	8130.38
973.512	8102.38
973.736	8053.38
973.96	8055.38
974.184	8041.38
974.408	7933.38
974.631	7928.38
974.855	7868.38
975.079	7837.38
975.303	7812.38
975.526	7784.38
975.75	7768.38
975.973	7734.38
976.197	7672.38
976.42	7593.38
976.644	7570.38
976.867	7574.38
977.09	7470.38
977.313	7434.38
977.537	7384.38
977.76	7305.38
977.983	7274.38
978.206	7223.38
978.429	7170.38
978.652	7079.38
978.875	7056.38
979.098	6991.38
979.321	7023.38
979.544	6936.38
979.767	6890.38
979.989	6785.38
980.212	6767.38
980.435	6707.38
980.657	6670.38
980.88	6677.38
981.102	6612.38
981.325	6637.38
981.547	6481.38
981.77	6501.38
981.992	6441.38
982.214	6444.38
982.437	6387.38
982.659	6372.38
982.881	6374.38
983.103	6328.38
983.325	6213.38
983.547	6209.38
983.769	6153.38
983.991	6182.38
984.213	6141.38
984.435	6158.38
984.657	6089.38
984.879	6033.38
985.1	6046.38
985.322	5961.38
985.544	5950.38
985.765	5988.38
985.987	5877.38
986.208	5808.38
986.43	5863.38
986.651	5782.38
986.873	5772.38
987.094	5733.38
987.315	5715.38
987.536	5619.38
987.758	5564.38
987.979	5566.38
988.2	5551.38
988.421	5528.38
988.642	5427.38
988.863	5413.38
989.084	5329.38
989.305	5303.38
989.526	5236.38
989.747	5264.38
989.967	5191.38
990.188	5173.38
990.409	5148.38
990.629	5071.38
990.85	5080.38
991.071	5014.38
991.291	4968.38
991.512	4961.38
991.732	4917.38
991.952	4902.38
992.173	4860.38
992.393	4915.38
992.613	4860.38
992.834	4825.38
993.054	4785.38
993.274	4805.38
993.494	4730.38
993.714	4740.38
993.934	4701.38
994.154	4695.38
994.374	4677.38
994.594	4658.38
994.813	4637.38
995.033	4639.38
995.253	4569.38
995.473	4598.38
995.692	4517.38
995.912	4470.38
996.131	4423.38
996.351	4432.38
996.57	4351.38
996.79	4349.38
997.009	4300.38
997.228	4313.38
997.448	4235.38
997.667	4215.38
997.886	4144.38
998.105	4085.38
998.325	4097.38
998.544	4015.38
998.763	3990.38
998.982	3990.38
999.201	3949.38
999.419	3904.38
999.638	3911.38
999.857	3850.38
1000.076	3903.38
1000.295	3794.38
1000.513	3856.38
1000.732	3791.38
1000.95	3727.38
1001.169	3797.38
1001.388	3742.38
1001.606	3739.38
1001.824	3693.38
1002.043	3708.38
1002.261	3655.38
1002.479	3666.38
1002.698	3676.38
1002.916	3628.38
1003.134	3585.38
1003.352	3613.38
1003.57	3571.38
1003.788	3573.38
1004.006	3523.38
1004.224	3489.38
1004.442	3444.38
1004.66	3490.38
1004.878	3460.38
1005.095	3429.38
1005.313	3403.38
1005.531	3373.38
1005.748	3391.38
1005.966	3363.38
1006.184	3310.38
1006.401	3309.38
1006.618	3251.38
1006.836	3290.38
1007.053	3265.38
1007.271	3210.38
1007.488	3231.38
1007.705	3212.38
1007.922	3215.38
1008.139	3178.38
1008.357	3152.38
1008.574	3136.38
1008.791	3189.38
1009.008	3185.38
1009.225	3183.38
1009.441	3188.38
1009.658	3141.38
1009.875	3165.38
1010.092	3154.38
1010.309	3133.38
1010.525	3102.38
1010.742	3067.38
1010.958	3031.38
1011.175	2988.38
1011.391	2998.38
1011.608	2956.38
1011.824	2928.38
1012.041	2898.38
1012.257	2876.38
1012.473	2823.38
1012.689	2863.38
1012.906	2804.38
1013.122	2832.38
1013.338	2777.38
1013.554	2758.38
1013.77	2796.38
1013.986	2785.38
1014.202	2794.38
1014.418	2804.38
1014.634	2836.38
1014.849	2824.38
1015.065	2852.38
1015.281	2856.38
1015.496	2830.38
1015.712	2822.38
1015.928	2803.38
1016.143	2728.38
1016.359	2704.38
1016.574	2673.38
1016.79	2608.38
1017.005	2553.38
1017.22	2498.38
1017.435	2493.38
1017.651	2455.38
1017.866	2422.38
1018.081	2368.38
1018.296	2334.38
1018.511	2326.38
1018.726	2292.38
1018.941	2282.38
1019.156	2236.38
1019.371	2223.38
1019.586	2245.38
1019.801	2189.38
1020.015	2216.38
1020.23	2182.38
1020.445	2162.38
1020.659	2149.38
1020.874	2141.38
1021.088	2058.38
1021.303	2067.38
1021.517	1995.38
1021.732	1994.38
1021.946	1978.38
1022.16	1985.38
1022.375	1932.38
1022.589	1934.38
1022.803	1881.38
1023.017	1856.38
1023.231	1823.38
1023.445	1783.38
1023.659	1741.38
1023.873	1718.38
1024.087	1682.38
1024.301	1677.38
1024.515	1633.38
1024.729	1648.38
1024.942	1566.38
1025.156	1542.38
1025.37	1524.38
1025.583	1506.38
1025.797	1487.38
1026.01	1453.38
1026.224	1432.38
1026.437	1393.38
1026.651	1354.38
1026.864	1289.38
1027.077	1266.38
1027.291	1239.38
1027.504	1209.38
1027.717	1179.38
1027.93	1144.38
1028.143	1149.38
1028.356	1082.38
1028.569	1017.38
1028.782	961.38
1028.995	-4.62
1029.208	-1.62
1029.421	-0.62
1029.634	-2.62
