Data from QEP037381__157__15-12-02-538.txt Node

Date: Mon Mar 14 15:12:02 EDT 2022
User: dcclab
Spectrometer: QEP03738
Trigger mode: 4
Integration Time (sec): 1.500000E0
Scans to average: 1
Electric dark correction enabled: true
Nonlinearity correction enabled: false
Boxcar width: 0
XAxis mode: Wavelengths
Number of Pixels in Spectrum: 1044
>>>>>Begin Spectral Data<<<<<
783.959	14.12
784.218	2.12
784.476	-2.88
784.734	-1.88
784.992	236.12
785.251	232.12
785.509	222.12
785.767	238.12
786.025	229.12
786.283	237.12
786.541	223.12
786.798	234.12
787.056	239.12
787.314	219.12
787.572	235.12
787.83	231.12
788.087	241.12
788.345	249.12
788.602	250.12
788.86	241.12
789.117	261.12
789.375	248.12
789.632	261.12
789.89	254.12
790.147	274.12
790.404	269.12
790.661	283.12
790.919	282.12
791.176	282.12
791.433	300.12
791.69	300.12
791.947	312.12
792.204	290.12
792.461	318.12
792.718	321.12
792.974	337.12
793.231	352.12
793.488	376.12
793.745	377.12
794.001	399.12
794.258	446.12
794.514	444.12
794.771	470.12
795.027	500.12
795.284	519.12
795.54	558.12
795.797	590.12
796.053	640.12
796.309	728.12
796.565	784.12
796.822	872.12
797.078	1002.12
797.334	1194.12
797.59	1412.12
797.846	1740.12
798.102	2324.12
798.358	3195.12
798.614	4524.12
798.869	6672.12
799.125	9856.12
799.381	14497.12
799.637	20709.12
799.892	28199.12
800.148	36256.12
800.403	44147.12
800.659	50809.12
800.914	55919.12
801.17	59432.12
801.425	61378.12
801.68	63030.12
801.936	64217.12
802.191	65563.12
802.446	66985.12
802.701	68345.12
802.957	69646.12
803.212	71053.12
803.467	72284.12
803.722	73635.12
803.977	74752.12
804.232	76187.12
804.486	77731.12
804.741	79066.12
804.996	80149.12
805.251	81301.12
805.505	83011.12
805.76	83948.12
806.015	85074.12
806.269	85864.12
806.524	86897.12
806.778	87769.12
807.033	88246.12
807.287	89195.12
807.541	90295.12
807.796	91493.12
808.05	92188.12
808.304	92944.12
808.558	93313.12
808.812	93961.12
809.066	94635.12
809.32	95061.12
809.574	95626.12
809.828	96200.12
810.082	96673.12
810.336	97368.12
810.59	98290.12
810.844	99262.12
811.097	100455.12
811.351	101665.12
811.605	102915.12
811.858	104781.12
812.112	106138.12
812.365	107690.12
812.619	109261.12
812.872	110611.12
813.126	112144.12
813.379	113212.12
813.632	114747.12
813.885	116241.12
814.139	117593.12
814.392	118852.12
814.645	120532.12
814.898	122638.12
815.151	124789.12
815.404	126711.12
815.657	128939.12
815.91	130887.12
816.163	132170.12
816.416	133125.12
816.668	134229.12
816.921	134878.12
817.174	135127.12
817.426	134753.12
817.679	134902.12
817.931	134766.12
818.184	134449.12
818.436	134145.12
818.689	133937.12
818.941	134224.12
819.194	134504.12
819.446	134735.12
819.698	135091.12
819.95	135544.12
820.202	135842.12
820.455	136300.12
820.707	136579.12
820.959	136475.12
821.211	136445.12
821.462	136120.12
821.714	135562.12
821.966	135027.12
822.218	134195.12
822.47	133214.12
822.722	132411.12
822.973	131851.12
823.225	131632.12
823.476	131192.12
823.728	131379.12
823.979	131122.12
824.231	130845.12
824.482	130574.12
824.734	130688.12
824.985	130624.12
825.236	130479.12
825.487	129931.12
825.739	129058.12
825.99	128662.12
826.241	127945.12
826.492	127395.12
826.743	126610.12
826.994	125842.12
827.245	125266.12
827.496	124875.12
827.747	124338.12
827.997	124594.12
828.248	124595.12
828.499	124363.12
828.75	124345.12
829	124241.12
829.251	123869.12
829.501	123593.12
829.752	122794.12
830.002	122123.12
830.253	121412.12
830.503	120206.12
830.753	119589.12
831.004	118846.12
831.254	118209.12
831.504	117764.12
831.754	117433.12
832.004	117376.12
832.254	117144.12
832.504	117022.12
832.754	117138.12
833.004	116981.12
833.254	116571.12
833.504	115771.12
833.754	115579.12
834.003	114797.12
834.253	114445.12
834.503	113819.12
834.752	112942.12
835.002	112127.12
835.252	111768.12
835.501	111208.12
835.75	110545.12
836	110403.12
836.249	110320.12
836.499	110294.12
836.748	109617.12
836.997	109436.12
837.246	109646.12
837.495	109500.12
837.744	109629.12
837.993	109738.12
838.242	109534.12
838.491	109184.12
838.74	108379.12
838.989	107336.12
839.238	106753.12
839.487	106183.12
839.736	105308.12
839.984	105097.12
840.233	104233.12
840.482	103666.12
840.73	103510.12
840.979	102958.12
841.227	102408.12
841.476	101863.12
841.724	101572.12
841.972	101489.12
842.221	100813.12
842.469	100508.12
842.717	100105.12
842.965	99654.12
843.213	99165.12
843.461	98809.12
843.71	98452.12
843.958	98067.12
844.205	97715.12
844.453	97545.12
844.701	96955.12
844.949	97051.12
845.197	96893.12
845.445	96678.12
845.692	96642.12
845.94	96763.12
846.188	96555.12
846.435	96616.12
846.683	96148.12
846.93	95592.12
847.178	94805.12
847.425	94360.12
847.672	93497.12
847.92	92862.12
848.167	91814.12
848.414	90883.12
848.661	89840.12
848.908	89578.12
849.155	89225.12
849.402	89138.12
849.649	88757.12
849.896	89098.12
850.143	89391.12
850.39	89745.12
850.637	89833.12
850.884	89445.12
851.131	89341.12
851.377	88956.12
851.624	88706.12
851.87	88344.12
852.117	87668.12
852.364	87286.12
852.61	86856.12
852.856	86217.12
853.103	86006.12
853.349	85446.12
853.595	85094.12
853.842	84372.12
854.088	84323.12
854.334	84446.12
854.58	84234.12
854.826	84014.12
855.072	83287.12
855.318	82800.12
855.564	81969.12
855.81	81218.12
856.056	80619.12
856.302	79924.12
856.548	79491.12
856.793	78861.12
857.039	78671.12
857.285	78211.12
857.53	78118.12
857.776	78072.12
858.021	78391.12
858.267	78546.12
858.512	78662.12
858.758	78572.12
859.003	78894.12
859.248	78617.12
859.493	78396.12
859.739	78221.12
859.984	78081.12
860.229	77253.12
860.474	76955.12
860.719	76595.12
860.964	75672.12
861.209	75524.12
861.454	74913.12
861.699	74336.12
861.943	74004.12
862.188	73497.12
862.433	73212.12
862.678	72685.12
862.922	72898.12
863.167	72784.12
863.411	72626.12
863.656	72026.12
863.9	71981.12
864.145	71761.12
864.389	71259.12
864.634	70883.12
864.878	70707.12
865.122	70257.12
865.366	69962.12
865.61	69855.12
865.855	69465.12
866.099	69446.12
866.343	69344.12
866.587	68834.12
866.831	68839.12
867.074	68959.12
867.318	68901.12
867.562	68640.12
867.806	68622.12
868.05	68493.12
868.293	68210.12
868.537	68024.12
868.78	67877.12
869.024	67426.12
869.267	66963.12
869.511	66359.12
869.754	65867.12
869.998	65148.12
870.241	64469.12
870.484	64146.12
870.728	63809.12
870.971	63551.12
871.214	63081.12
871.457	62969.12
871.7	62807.12
871.943	62605.12
872.186	62733.12
872.429	62788.12
872.672	62658.12
872.915	62705.12
873.158	62483.12
873.4	62502.12
873.643	62169.12
873.886	61782.12
874.128	61733.12
874.371	61459.12
874.613	61381.12
874.856	61037.12
875.098	60867.12
875.341	60591.12
875.583	60539.12
875.825	60222.12
876.068	59935.12
876.31	59623.12
876.552	59122.12
876.794	58511.12
877.036	57905.12
877.278	57527.12
877.52	57027.12
877.762	56912.12
878.004	56810.12
878.246	56532.12
878.488	56629.12
878.73	56366.12
878.972	56128.12
879.213	55901.12
879.455	55893.12
879.697	55779.12
879.938	55704.12
880.18	55360.12
880.421	55004.12
880.663	54986.12
880.904	54801.12
881.145	54773.12
881.387	54602.12
881.628	54682.12
881.869	54619.12
882.11	54264.12
882.352	54235.12
882.593	54185.12
882.834	53931.12
883.075	53576.12
883.316	53486.12
883.557	53244.12
883.797	52939.12
884.038	52489.12
884.279	51973.12
884.52	51459.12
884.761	50938.12
885.001	50780.12
885.242	50152.12
885.482	49881.12
885.723	49591.12
885.963	49437.12
886.204	49195.12
886.444	48873.12
886.685	48761.12
886.925	48415.12
887.165	48098.12
887.405	47933.12
887.646	47858.12
887.886	47768.12
888.126	47529.12
888.366	47499.12
888.606	47613.12
888.846	47515.12
889.086	47566.12
889.326	47724.12
889.565	47621.12
889.805	47335.12
890.045	47333.12
890.285	47322.12
890.524	47035.12
890.764	46866.12
891.003	46408.12
891.243	45982.12
891.482	45446.12
891.722	45098.12
891.961	44826.12
892.201	44416.12
892.44	44233.12
892.679	44081.12
892.918	43913.12
893.158	43714.12
893.397	43733.12
893.636	43363.12
893.875	43304.12
894.114	43081.12
894.353	42956.12
894.592	42756.12
894.831	42525.12
895.069	42166.12
895.308	41926.12
895.547	41697.12
895.786	41381.12
896.024	41284.12
896.263	41090.12
896.501	40958.12
896.74	40829.12
896.978	40876.12
897.217	40763.12
897.455	40581.12
897.694	40496.12
897.932	40412.12
898.17	40272.12
898.408	40205.12
898.646	40002.12
898.885	39708.12
899.123	39435.12
899.361	39230.12
899.599	38998.12
899.837	38692.12
900.075	38429.12
900.312	38161.12
900.55	37769.12
900.788	37547.12
901.026	37167.12
901.263	36813.12
901.501	36581.12
901.739	36223.12
901.976	35887.12
902.214	35956.12
902.451	35810.12
902.689	35815.12
902.926	35721.12
903.163	35573.12
903.401	35403.12
903.638	35415.12
903.875	35515.12
904.112	35375.12
904.349	35396.12
904.586	35167.12
904.823	35162.12
905.06	34648.12
905.297	34587.12
905.534	34275.12
905.771	34007.12
906.008	33848.12
906.245	33529.12
906.481	33276.12
906.718	33145.12
906.955	32960.12
907.191	32888.12
907.428	32538.12
907.664	32610.12
907.901	32444.12
908.137	32254.12
908.374	32264.12
908.61	31921.12
908.846	31855.12
909.083	31550.12
909.319	31389.12
909.555	31023.12
909.791	30966.12
910.027	30728.12
910.263	30390.12
910.499	30247.12
910.735	29900.12
910.971	29687.12
911.207	29445.12
911.443	29280.12
911.678	29242.12
911.914	29065.12
912.15	28990.12
912.385	28976.12
912.621	28750.12
912.857	28763.12
913.092	28781.12
913.328	28656.12
913.563	28664.12
913.798	28482.12
914.034	28519.12
914.269	28465.12
914.504	28333.12
914.739	28257.12
914.975	28026.12
915.21	27788.12
915.445	27618.12
915.68	27303.12
915.915	27079.12
916.15	26789.12
916.384	26501.12
916.619	26191.12
916.854	25889.12
917.089	25767.12
917.324	25580.12
917.558	25494.12
917.793	25294.12
918.028	25176.12
918.262	25130.12
918.497	25005.12
918.731	25084.12
918.965	24946.12
919.2	24833.12
919.434	24850.12
919.668	24791.12
919.903	24667.12
920.137	24671.12
920.371	24405.12
920.605	24308.12
920.839	24031.12
921.073	24018.12
921.307	23706.12
921.541	23566.12
921.775	23447.12
922.009	23248.12
922.243	23151.12
922.476	23247.12
922.71	23052.12
922.944	23048.12
923.177	23039.12
923.411	22922.12
923.644	22917.12
923.878	22792.12
924.111	22638.12
924.345	22575.12
924.578	22400.12
924.811	22301.12
925.045	22169.12
925.278	22049.12
925.511	21907.12
925.744	21668.12
925.977	21423.12
926.21	21318.12
926.443	21246.12
926.676	20999.12
926.909	20774.12
927.142	20681.12
927.375	20415.12
927.608	20416.12
927.841	20157.12
928.073	20128.12
928.306	20024.12
928.539	20040.12
928.771	20034.12
929.004	19943.12
929.236	19920.12
929.469	19973.12
929.701	19989.12
929.933	19957.12
930.166	19905.12
930.398	19924.12
930.63	19900.12
930.862	19736.12
931.094	19584.12
931.327	19447.12
931.559	19395.12
931.791	19219.12
932.023	19069.12
932.255	18998.12
932.486	18722.12
932.718	18655.12
932.95	18532.12
933.182	18447.12
933.413	18333.12
933.645	18350.12
933.877	18145.12
934.108	18080.12
934.34	18001.12
934.571	17847.12
934.803	17825.12
935.034	17665.12
935.265	17761.12
935.497	17615.12
935.728	17592.12
935.959	17481.12
936.19	17374.12
936.422	17373.12
936.653	17148.12
936.884	17064.12
937.115	16981.12
937.346	16835.12
937.577	16723.12
937.807	16541.12
938.038	16481.12
938.269	16498.12
938.5	16492.12
938.73	16419.12
938.961	16414.12
939.192	16416.12
939.422	16343.12
939.653	16347.12
939.883	16315.12
940.114	16267.12
940.344	16141.12
940.574	16018.12
940.805	15974.12
941.035	15881.12
941.265	15681.12
941.495	15764.12
941.726	15505.12
941.956	15346.12
942.186	15376.12
942.416	15148.12
942.646	15034.12
942.876	14917.12
943.105	14813.12
943.335	14672.12
943.565	14509.12
943.795	14377.12
944.024	14346.12
944.254	14130.12
944.484	14102.12
944.713	14021.12
944.943	14042.12
945.172	13962.12
945.402	13917.12
945.631	13895.12
945.86	13854.12
946.09	13799.12
946.319	13818.12
946.548	13733.12
946.777	13768.12
947.006	13646.12
947.235	13650.12
947.465	13542.12
947.694	13395.12
947.922	13290.12
948.151	13205.12
948.38	13128.12
948.609	13001.12
948.838	12931.12
949.067	12876.12
949.295	12720.12
949.524	12687.12
949.752	12566.12
949.981	12538.12
950.21	12353.12
950.438	12256.12
950.666	12288.12
950.895	12192.12
951.123	12111.12
951.351	12053.12
951.58	11928.12
951.808	11855.12
952.036	11735.12
952.264	11749.12
952.492	11649.12
952.72	11664.12
952.948	11565.12
953.176	11464.12
953.404	11383.12
953.632	11306.12
953.86	11229.12
954.088	11079.12
954.315	10954.12
954.543	10954.12
954.771	10843.12
954.998	10834.12
955.226	10770.12
955.453	10674.12
955.681	10719.12
955.908	10643.12
956.135	10555.12
956.363	10594.12
956.59	10677.12
956.817	10565.12
957.045	10508.12
957.272	10492.12
957.499	10415.12
957.726	10325.12
957.953	10258.12
958.18	10253.12
958.407	10252.12
958.634	10167.12
958.861	10062.12
959.087	10048.12
959.314	9922.12
959.541	9874.12
959.767	9798.12
959.994	9666.12
960.221	9613.12
960.447	9547.12
960.674	9449.12
960.9	9394.12
961.127	9363.12
961.353	9276.12
961.579	9223.12
961.806	9231.12
962.032	9065.12
962.258	9022.12
962.484	9008.12
962.71	8909.12
962.936	8928.12
963.162	8923.12
963.388	8834.12
963.614	8795.12
963.84	8828.12
964.066	8787.12
964.292	8792.12
964.518	8749.12
964.743	8670.12
964.969	8614.12
965.195	8535.12
965.42	8550.12
965.646	8517.12
965.871	8434.12
966.097	8402.12
966.322	8290.12
966.547	8303.12
966.773	8274.12
966.998	8154.12
967.223	8151.12
967.448	8099.12
967.674	8104.12
967.899	8032.12
968.124	7863.12
968.349	7914.12
968.574	7857.12
968.799	7809.12
969.024	7847.12
969.248	7683.12
969.473	7732.12
969.698	7630.12
969.923	7523.12
970.147	7569.12
970.372	7513.12
970.596	7431.12
970.821	7430.12
971.046	7343.12
971.27	7238.12
971.494	7307.12
971.719	7217.12
971.943	7151.12
972.167	7128.12
972.392	7030.12
972.616	7037.12
972.84	6924.12
973.064	6876.12
973.288	6935.12
973.512	6897.12
973.736	6847.12
973.96	6784.12
974.184	6796.12
974.408	6750.12
974.631	6721.12
974.855	6734.12
975.079	6690.12
975.303	6641.12
975.526	6638.12
975.75	6610.12
975.973	6595.12
976.197	6540.12
976.42	6503.12
976.644	6501.12
976.867	6456.12
977.09	6377.12
977.313	6312.12
977.537	6324.12
977.76	6253.12
977.983	6216.12
978.206	6160.12
978.429	6133.12
978.652	6057.12
978.875	6055.12
979.098	5961.12
979.321	5936.12
979.544	5890.12
979.767	5858.12
979.989	5844.12
980.212	5758.12
980.435	5703.12
980.657	5632.12
980.88	5671.12
981.102	5651.12
981.325	5631.12
981.547	5564.12
981.77	5530.12
981.992	5474.12
982.214	5475.12
982.437	5465.12
982.659	5411.12
982.881	5414.12
983.103	5374.12
983.325	5368.12
983.547	5370.12
983.769	5291.12
983.991	5320.12
984.213	5239.12
984.435	5247.12
984.657	5211.12
984.879	5194.12
985.1	5170.12
985.322	5127.12
985.544	5057.12
985.765	5066.12
985.987	5018.12
986.208	5064.12
986.43	4997.12
986.651	4963.12
986.873	4922.12
987.094	4898.12
987.315	4874.12
987.536	4823.12
987.758	4807.12
987.979	4733.12
988.2	4755.12
988.421	4648.12
988.642	4651.12
988.863	4619.12
989.084	4622.12
989.305	4532.12
989.526	4539.12
989.747	4502.12
989.967	4454.12
990.188	4457.12
990.409	4417.12
990.629	4347.12
990.85	4309.12
991.071	4327.12
991.291	4259.12
991.512	4276.12
991.732	4224.12
991.952	4164.12
992.173	4208.12
992.393	4223.12
992.613	4122.12
992.834	4093.12
993.054	4082.12
993.274	4076.12
993.494	4125.12
993.714	4089.12
993.934	4067.12
994.154	4048.12
994.374	4048.12
994.594	4002.12
994.813	3977.12
995.033	3938.12
995.253	3975.12
995.473	3920.12
995.692	3918.12
995.912	3906.12
996.131	3830.12
996.351	3800.12
996.57	3791.12
996.79	3755.12
997.009	3726.12
997.228	3726.12
997.448	3630.12
997.667	3612.12
997.886	3549.12
998.105	3529.12
998.325	3496.12
998.544	3474.12
998.763	3452.12
998.982	3396.12
999.201	3378.12
999.419	3370.12
999.638	3366.12
999.857	3363.12
1000.076	3354.12
1000.295	3332.12
1000.513	3278.12
1000.732	3305.12
1000.95	3218.12
1001.169	3264.12
1001.388	3229.12
1001.606	3205.12
1001.824	3197.12
1002.043	3188.12
1002.261	3146.12
1002.479	3156.12
1002.698	3165.12
1002.916	3115.12
1003.134	3135.12
1003.352	3103.12
1003.57	3089.12
1003.788	3038.12
1004.006	3040.12
1004.224	3012.12
1004.442	3002.12
1004.66	3014.12
1004.878	2982.12
1005.095	2944.12
1005.313	2948.12
1005.531	2894.12
1005.748	2886.12
1005.966	2959.12
1006.184	2873.12
1006.401	2876.12
1006.618	2842.12
1006.836	2827.12
1007.053	2824.12
1007.271	2828.12
1007.488	2813.12
1007.705	2781.12
1007.922	2810.12
1008.139	2752.12
1008.357	2777.12
1008.574	2733.12
1008.791	2762.12
1009.008	2807.12
1009.225	2791.12
1009.441	2776.12
1009.658	2788.12
1009.875	2814.12
1010.092	2737.12
1010.309	2746.12
1010.525	2732.12
1010.742	2712.12
1010.958	2663.12
1011.175	2646.12
1011.391	2617.12
1011.608	2590.12
1011.824	2557.12
1012.041	2533.12
1012.257	2531.12
1012.473	2520.12
1012.689	2462.12
1012.906	2446.12
1013.122	2455.12
1013.338	2421.12
1013.554	2457.12
1013.77	2434.12
1013.986	2418.12
1014.202	2442.12
1014.418	2430.12
1014.634	2543.12
1014.849	2563.12
1015.065	2554.12
1015.281	2538.12
1015.496	2552.12
1015.712	2527.12
1015.928	2474.12
1016.143	2427.12
1016.359	2396.12
1016.574	2333.12
1016.79	2314.12
1017.005	2262.12
1017.22	2247.12
1017.435	2176.12
1017.651	2141.12
1017.866	2128.12
1018.081	2090.12
1018.296	2053.12
1018.511	2031.12
1018.726	2003.12
1018.941	2011.12
1019.156	1986.12
1019.371	1955.12
1019.586	1971.12
1019.801	1959.12
1020.015	1920.12
1020.23	1910.12
1020.445	1901.12
1020.659	1870.12
1020.874	1845.12
1021.088	1834.12
1021.303	1786.12
1021.517	1760.12
1021.732	1768.12
1021.946	1750.12
1022.16	1768.12
1022.375	1710.12
1022.589	1691.12
1022.803	1659.12
1023.017	1600.12
1023.231	1597.12
1023.445	1593.12
1023.659	1542.12
1023.873	1511.12
1024.087	1476.12
1024.301	1461.12
1024.515	1415.12
1024.729	1419.12
1024.942	1366.12
1025.156	1396.12
1025.37	1344.12
1025.583	1326.12
1025.797	1268.12
1026.01	1303.12
1026.224	1252.12
1026.437	1200.12
1026.651	1184.12
1026.864	1136.12
1027.077	1114.12
1027.291	1101.12
1027.504	1075.12
1027.717	1044.12
1027.93	1004.12
1028.143	963.12
1028.356	943.12
1028.569	900.12
1028.782	858.12
1028.995	-1.88
1029.208	-2.88
1029.421	-2.88
1029.634	-3.88
