Data from QEP037381__165__15-12-26-539.txt Node

Date: Mon Mar 14 15:12:26 EDT 2022
User: dcclab
Spectrometer: QEP03738
Trigger mode: 4
Integration Time (sec): 1.500000E0
Scans to average: 1
Electric dark correction enabled: true
Nonlinearity correction enabled: false
Boxcar width: 0
XAxis mode: Wavelengths
Number of Pixels in Spectrum: 1044
>>>>>Begin Spectral Data<<<<<
783.959	12.38
784.218	-0.62
784.476	-3.62
784.734	-2.62
784.992	250.38
785.251	253.38
785.509	245.38
785.767	251.38
786.025	252.38
786.283	256.38
786.541	255.38
786.798	260.38
787.056	251.38
787.314	256.38
787.572	266.38
787.83	256.38
788.087	274.38
788.345	264.38
788.602	281.38
788.86	271.38
789.117	285.38
789.375	280.38
789.632	289.38
789.89	278.38
790.147	288.38
790.404	302.38
790.661	322.38
790.919	312.38
791.176	322.38
791.433	322.38
791.69	342.38
791.947	355.38
792.204	345.38
792.461	357.38
792.718	387.38
792.974	389.38
793.231	393.38
793.488	420.38
793.745	433.38
794.001	448.38
794.258	494.38
794.514	493.38
794.771	521.38
795.027	564.38
795.284	599.38
795.54	631.38
795.797	671.38
796.053	768.38
796.309	821.38
796.565	906.38
796.822	1005.38
797.078	1139.38
797.334	1345.38
797.59	1606.38
797.846	2043.38
798.102	2703.38
798.358	3615.38
798.614	5192.38
798.869	7656.38
799.125	11403.38
799.381	16720.38
799.637	23730.38
799.892	32381.38
800.148	41714.38
800.403	50660.38
800.659	58654.38
800.914	64502.38
801.17	68410.38
801.425	71379.38
801.68	73205.38
801.936	74878.38
802.191	76208.38
802.446	77633.38
802.701	79327.38
802.957	80865.38
803.212	82453.38
803.467	83933.38
803.722	85206.38
803.977	87064.38
804.232	88322.38
804.486	90114.38
804.741	91768.38
804.996	93074.38
805.251	94441.38
805.505	96128.38
805.76	97662.38
806.015	98861.38
806.269	99966.38
806.524	100793.38
806.778	101824.38
807.033	102132.38
807.287	103710.38
807.541	104552.38
807.796	106183.38
808.05	106732.38
808.304	107886.38
808.558	108129.38
808.812	108674.38
809.066	109562.38
809.32	109984.38
809.574	110635.38
809.828	111266.38
810.082	111946.38
810.336	112721.38
810.59	113661.38
810.844	115002.38
811.097	116103.38
811.351	117606.38
811.605	119216.38
811.858	121146.38
812.112	122764.38
812.365	124334.38
812.619	126401.38
812.872	127910.38
813.126	129271.38
813.379	130592.38
813.632	132336.38
813.885	133532.38
814.139	135755.38
814.392	137096.38
814.645	139330.38
814.898	141737.38
815.151	143908.38
815.404	146294.38
815.657	148663.38
815.91	150571.38
816.163	152368.38
816.416	153635.38
816.668	154501.38
816.921	155556.38
817.174	155499.38
817.426	155666.38
817.679	155317.38
817.931	155002.38
818.184	154692.38
818.436	154321.38
818.689	154051.38
818.941	154264.38
819.194	154823.38
819.446	155136.38
819.698	155723.38
819.95	156048.38
820.202	156397.38
820.455	156520.38
820.707	157049.38
820.959	156925.38
821.211	156991.38
821.462	156386.38
821.714	155847.38
821.966	155088.38
822.218	154451.38
822.47	153336.38
822.722	152549.38
822.973	151819.38
823.225	151232.38
823.476	150934.38
823.728	150813.38
823.979	150850.38
824.231	150352.38
824.482	150218.38
824.734	150103.38
824.985	150251.38
825.236	149914.38
825.487	149262.38
825.739	148368.38
825.99	147702.38
826.241	146944.38
826.492	145988.38
826.743	145511.38
826.994	144640.38
827.245	144148.38
827.496	143508.38
827.747	143049.38
827.997	142852.38
828.248	142970.38
828.499	142781.38
828.75	142501.38
829	142748.38
829.251	142135.38
829.501	141692.38
829.752	141017.38
830.002	140324.38
830.253	139279.38
830.503	138414.38
830.753	137423.38
831.004	136229.38
831.254	135462.38
831.504	135244.38
831.754	135026.38
832.004	134450.38
832.254	134673.38
832.504	134525.38
832.754	134271.38
833.004	134162.38
833.254	133729.38
833.504	133173.38
833.754	132288.38
834.003	131835.38
834.253	131311.38
834.503	130579.38
834.752	129755.38
835.002	128552.38
835.252	128169.38
835.501	127075.38
835.75	126914.38
836	126429.38
836.249	126210.38
836.499	126151.38
836.748	125926.38
836.997	125367.38
837.246	125460.38
837.495	125458.38
837.744	125508.38
837.993	125499.38
838.242	125259.38
838.491	125115.38
838.74	124211.38
838.989	123036.38
839.238	122044.38
839.487	121601.38
839.736	120685.38
839.984	120017.38
840.233	119634.38
840.482	118750.38
840.73	118242.38
840.979	117882.38
841.227	117398.38
841.476	116693.38
841.724	116337.38
841.972	116160.38
842.221	115420.38
842.469	115239.38
842.717	114471.38
842.965	114269.38
843.213	113533.38
843.461	113168.38
843.71	112679.38
843.958	112119.38
844.205	111828.38
844.453	111514.38
844.701	111134.38
844.949	111183.38
845.197	110899.38
845.445	110427.38
845.692	110596.38
845.94	110620.38
846.188	110507.38
846.435	110075.38
846.683	109863.38
846.93	109210.38
847.178	108681.38
847.425	107716.38
847.672	106891.38
847.92	105858.38
848.167	105125.38
848.414	104075.38
848.661	103022.38
848.908	102488.38
849.155	101812.38
849.402	101841.38
849.649	101794.38
849.896	101790.38
850.143	102291.38
850.39	102484.38
850.637	102620.38
850.884	102264.38
851.131	101968.38
851.377	101776.38
851.624	101337.38
851.87	100911.38
852.117	100115.38
852.364	99488.38
852.61	98798.38
852.856	98716.38
853.103	98019.38
853.349	97419.38
853.595	96944.38
853.842	96743.38
854.088	96129.38
854.334	96240.38
854.58	96277.38
854.826	95831.38
855.072	95183.38
855.318	94530.38
855.564	93477.38
855.81	92460.38
856.056	91844.38
856.302	90986.38
856.548	90563.38
856.793	90089.38
857.039	89457.38
857.285	89196.38
857.53	89221.38
857.776	89349.38
858.021	89350.38
858.267	89633.38
858.512	89729.38
858.758	89505.38
859.003	89803.38
859.248	89802.38
859.493	89488.38
859.739	89308.38
859.984	88798.38
860.229	88187.38
860.474	87804.38
860.719	87215.38
860.964	86598.38
861.209	85896.38
861.454	85437.38
861.699	84775.38
861.943	84427.38
862.188	83853.38
862.433	83524.38
862.678	83148.38
862.922	83196.38
863.167	82946.38
863.411	82624.38
863.656	82285.38
863.9	82080.38
864.145	81586.38
864.389	81118.38
864.634	80793.38
864.878	80606.38
865.122	80099.38
865.366	79669.38
865.61	79612.38
865.855	79261.38
866.099	79130.38
866.343	78680.38
866.587	78319.38
866.831	78400.38
867.074	78465.38
867.318	78390.38
867.562	78089.38
867.806	78121.38
868.05	77870.38
868.293	77817.38
868.537	77814.38
868.78	77196.38
869.024	76900.38
869.267	76256.38
869.511	75531.38
869.754	74945.38
869.998	74120.38
870.241	73378.38
870.484	73161.38
870.728	72526.38
870.971	72174.38
871.214	71916.38
871.457	71418.38
871.7	71370.38
871.943	71567.38
872.186	71472.38
872.429	71474.38
872.672	71508.38
872.915	71415.38
873.158	70971.38
873.4	70974.38
873.643	70626.38
873.886	70239.38
874.128	70147.38
874.371	70180.38
874.613	69851.38
874.856	69469.38
875.098	69336.38
875.341	69129.38
875.583	68904.38
875.825	68560.38
876.068	68140.38
876.31	67741.38
876.552	67216.38
876.794	66560.38
877.036	65940.38
877.278	65402.38
877.52	65205.38
877.762	64699.38
878.004	64481.38
878.246	64332.38
878.488	64269.38
878.73	64049.38
878.972	63973.38
879.213	63765.38
879.455	63878.38
879.697	63517.38
879.938	63325.38
880.18	62946.38
880.421	62680.38
880.663	62398.38
880.904	62111.38
881.145	62194.38
881.387	62201.38
881.628	62036.38
881.869	61916.38
882.11	61881.38
882.352	61788.38
882.593	61400.38
882.834	61397.38
883.075	61113.38
883.316	60728.38
883.557	60576.38
883.797	60321.38
884.038	59884.38
884.279	59032.38
884.52	58512.38
884.761	57959.38
885.001	57466.38
885.242	57067.38
885.482	56680.38
885.723	56167.38
885.963	56068.38
886.204	55724.38
886.444	55554.38
886.685	55359.38
886.925	55106.38
887.165	54856.38
887.405	54678.38
887.646	54291.38
887.886	54231.38
888.126	54059.38
888.366	54023.38
888.606	54060.38
888.846	54138.38
889.086	54371.38
889.326	54136.38
889.565	54126.38
889.805	53827.38
890.045	53820.38
890.285	53500.38
890.524	53395.38
890.764	53475.38
891.003	52949.38
891.243	52096.38
891.482	51713.38
891.722	51316.38
891.961	50830.38
892.201	50548.38
892.44	50059.38
892.679	49958.38
892.918	49899.38
893.158	49629.38
893.397	49703.38
893.636	49326.38
893.875	49180.38
894.114	48792.38
894.353	48736.38
894.592	48545.38
894.831	48381.38
895.069	47975.38
895.308	47602.38
895.547	47347.38
895.786	47027.38
896.024	47008.38
896.263	46749.38
896.501	46579.38
896.74	46476.38
896.978	46486.38
897.217	46335.38
897.455	46146.38
897.694	45866.38
897.932	45715.38
898.17	45813.38
898.408	45640.38
898.646	45375.38
898.885	45073.38
899.123	44900.38
899.361	44482.38
899.599	44134.38
899.837	43904.38
900.075	43560.38
900.312	43316.38
900.55	42992.38
900.788	42589.38
901.026	42054.38
901.263	41789.38
901.501	41448.38
901.739	41222.38
901.976	40931.38
902.214	40717.38
902.451	40664.38
902.689	40589.38
902.926	40413.38
903.163	40325.38
903.401	40294.38
903.638	40276.38
903.875	40232.38
904.112	40269.38
904.349	40078.38
904.586	39984.38
904.823	39880.38
905.06	39516.38
905.297	39333.38
905.534	38813.38
905.771	38574.38
906.008	38351.38
906.245	38129.38
906.481	37896.38
906.718	37639.38
906.955	37435.38
907.191	37321.38
907.428	37006.38
907.664	36845.38
907.901	36773.38
908.137	36599.38
908.374	36375.38
908.61	36320.38
908.846	36071.38
909.083	35885.38
909.319	35688.38
909.555	35368.38
909.791	35101.38
910.027	34804.38
910.263	34481.38
910.499	34357.38
910.735	33799.38
910.971	33777.38
911.207	33552.38
911.443	33391.38
911.678	33120.38
911.914	32958.38
912.15	32954.38
912.385	32854.38
912.621	32769.38
912.857	32727.38
913.092	32595.38
913.328	32526.38
913.563	32622.38
913.798	32398.38
914.034	32358.38
914.269	32165.38
914.504	32046.38
914.739	31987.38
914.975	31786.38
915.21	31614.38
915.445	31281.38
915.68	31053.38
915.915	30825.38
916.15	30265.38
916.384	30029.38
916.619	29699.38
916.854	29391.38
917.089	29341.38
917.324	29058.38
917.558	28817.38
917.793	28618.38
918.028	28564.38
918.262	28502.38
918.497	28340.38
918.731	28365.38
918.965	28259.38
919.2	28212.38
919.434	28137.38
919.668	28081.38
919.903	27924.38
920.137	27795.38
920.371	27703.38
920.605	27470.38
920.839	27343.38
921.073	27074.38
921.307	26938.38
921.541	26676.38
921.775	26449.38
922.009	26430.38
922.243	26323.38
922.476	26262.38
922.71	26137.38
922.944	26060.38
923.177	25983.38
923.411	25964.38
923.644	25884.38
923.878	25790.38
924.111	25689.38
924.345	25497.38
924.578	25401.38
924.811	25282.38
925.045	25111.38
925.278	24904.38
925.511	24772.38
925.744	24457.38
925.977	24253.38
926.21	24183.38
926.443	23876.38
926.676	23685.38
926.909	23433.38
927.142	23349.38
927.375	23226.38
927.608	23044.38
927.841	22876.38
928.073	22754.38
928.306	22708.38
928.539	22691.38
928.771	22597.38
929.004	22534.38
929.236	22494.38
929.469	22492.38
929.701	22595.38
929.933	22615.38
930.166	22535.38
930.398	22478.38
930.63	22395.38
930.862	22272.38
931.094	22104.38
931.327	22112.38
931.559	21974.38
931.791	21683.38
932.023	21576.38
932.255	21403.38
932.486	21228.38
932.718	21042.38
932.95	20955.38
933.182	20769.38
933.413	20680.38
933.645	20557.38
933.877	20481.38
934.108	20360.38
934.34	20247.38
934.571	20220.38
934.803	20089.38
935.034	20092.38
935.265	19929.38
935.497	19816.38
935.728	19787.38
935.959	19655.38
936.19	19565.38
936.422	19514.38
936.653	19277.38
936.884	19358.38
937.115	19171.38
937.346	19013.38
937.577	18903.38
937.807	18667.38
938.038	18697.38
938.269	18708.38
938.5	18549.38
938.73	18581.38
938.961	18447.38
939.192	18411.38
939.422	18389.38
939.653	18414.38
939.883	18261.38
940.114	18225.38
940.344	18207.38
940.574	18087.38
940.805	18057.38
941.035	17907.38
941.265	17783.38
941.495	17642.38
941.726	17542.38
941.956	17313.38
942.186	17175.38
942.416	17025.38
942.646	16941.38
942.876	16778.38
943.105	16622.38
943.335	16533.38
943.565	16368.38
943.795	16287.38
944.024	16060.38
944.254	15996.38
944.484	15891.38
944.713	15806.38
944.943	15736.38
945.172	15672.38
945.402	15638.38
945.631	15570.38
945.86	15544.38
946.09	15532.38
946.319	15486.38
946.548	15453.38
946.777	15411.38
947.006	15386.38
947.235	15283.38
947.465	15185.38
947.694	15091.38
947.922	14942.38
948.151	14900.38
948.38	14765.38
948.609	14615.38
948.838	14611.38
949.067	14481.38
949.295	14359.38
949.524	14302.38
949.752	14190.38
949.981	14105.38
950.21	13964.38
950.438	13856.38
950.666	13734.38
950.895	13715.38
951.123	13508.38
951.351	13495.38
951.58	13377.38
951.808	13231.38
952.036	13278.38
952.264	13213.38
952.492	13158.38
952.72	13024.38
952.948	13062.38
953.176	12901.38
953.404	12708.38
953.632	12673.38
953.86	12641.38
954.088	12458.38
954.315	12300.38
954.543	12294.38
954.771	12218.38
954.998	12055.38
955.226	12117.38
955.453	12058.38
955.681	11926.38
955.908	11899.38
956.135	11955.38
956.363	11884.38
956.59	11887.38
956.817	11832.38
957.045	11825.38
957.272	11725.38
957.499	11738.38
957.726	11608.38
957.953	11589.38
958.18	11474.38
958.407	11374.38
958.634	11400.38
958.861	11230.38
959.087	11182.38
959.314	11181.38
959.541	11016.38
959.767	10916.38
959.994	10847.38
960.221	10755.38
960.447	10689.38
960.674	10596.38
960.9	10498.38
961.127	10482.38
961.353	10328.38
961.579	10266.38
961.806	10253.38
962.032	10205.38
962.258	10079.38
962.484	10056.38
962.71	10056.38
962.936	10034.38
963.162	9939.38
963.388	9937.38
963.614	9913.38
963.84	9839.38
964.066	9850.38
964.292	9872.38
964.518	9799.38
964.743	9709.38
964.969	9651.38
965.195	9601.38
965.42	9488.38
965.646	9520.38
965.871	9477.38
966.097	9337.38
966.322	9312.38
966.547	9311.38
966.773	9230.38
966.998	9202.38
967.223	9157.38
967.448	9090.38
967.674	9075.38
967.899	9025.38
968.124	8932.38
968.349	8910.38
968.574	8783.38
968.799	8784.38
969.024	8774.38
969.248	8580.38
969.473	8599.38
969.698	8545.38
969.923	8468.38
970.147	8442.38
970.372	8350.38
970.596	8365.38
970.821	8236.38
971.046	8250.38
971.27	8140.38
971.494	8092.38
971.719	8011.38
971.943	7912.38
972.167	7940.38
972.392	7919.38
972.616	7785.38
972.84	7797.38
973.064	7720.38
973.288	7738.38
973.512	7696.38
973.736	7641.38
973.96	7564.38
974.184	7539.38
974.408	7542.38
974.631	7524.38
974.855	7461.38
975.079	7518.38
975.303	7432.38
975.526	7389.38
975.75	7403.38
975.973	7310.38
976.197	7278.38
976.42	7265.38
976.644	7197.38
976.867	7131.38
977.09	7112.38
977.313	7079.38
977.537	6980.38
977.76	6926.38
977.983	6919.38
978.206	6848.38
978.429	6810.38
978.652	6794.38
978.875	6731.38
979.098	6660.38
979.321	6621.38
979.544	6545.38
979.767	6509.38
979.989	6462.38
980.212	6443.38
980.435	6348.38
980.657	6340.38
980.88	6308.38
981.102	6205.38
981.325	6226.38
981.547	6205.38
981.77	6161.38
981.992	6131.38
982.214	6142.38
982.437	6026.38
982.659	6027.38
982.881	6026.38
983.103	6004.38
983.325	6024.38
983.547	5979.38
983.769	5899.38
983.991	5872.38
984.213	5855.38
984.435	5809.38
984.657	5791.38
984.879	5760.38
985.1	5708.38
985.322	5687.38
985.544	5620.38
985.765	5626.38
985.987	5630.38
986.208	5629.38
986.43	5525.38
986.651	5495.38
986.873	5474.38
987.094	5406.38
987.315	5361.38
987.536	5338.38
987.758	5348.38
987.979	5290.38
988.2	5216.38
988.421	5199.38
988.642	5177.38
988.863	5130.38
989.084	5112.38
989.305	5049.38
989.526	5055.38
989.747	5004.38
989.967	4958.38
990.188	4883.38
990.409	4907.38
990.629	4841.38
990.85	4845.38
991.071	4741.38
991.291	4741.38
991.512	4699.38
991.732	4687.38
991.952	4669.38
992.173	4692.38
992.393	4627.38
992.613	4601.38
992.834	4626.38
993.054	4562.38
993.274	4582.38
993.494	4536.38
993.714	4511.38
993.934	4516.38
994.154	4497.38
994.374	4424.38
994.594	4416.38
994.813	4423.38
995.033	4422.38
995.253	4384.38
995.473	4352.38
995.692	4303.38
995.912	4253.38
996.131	4251.38
996.351	4210.38
996.57	4201.38
996.79	4142.38
997.009	4115.38
997.228	4095.38
997.448	4042.38
997.667	3973.38
997.886	3958.38
998.105	3900.38
998.325	3872.38
998.544	3899.38
998.763	3809.38
998.982	3843.38
999.201	3796.38
999.419	3759.38
999.638	3759.38
999.857	3704.38
1000.076	3718.38
1000.295	3668.38
1000.513	3675.38
1000.732	3621.38
1000.95	3605.38
1001.169	3640.38
1001.388	3568.38
1001.606	3547.38
1001.824	3563.38
1002.043	3511.38
1002.261	3526.38
1002.479	3507.38
1002.698	3452.38
1002.916	3433.38
1003.134	3414.38
1003.352	3405.38
1003.57	3392.38
1003.788	3398.38
1004.006	3376.38
1004.224	3315.38
1004.442	3329.38
1004.66	3317.38
1004.878	3280.38
1005.095	3240.38
1005.313	3308.38
1005.531	3228.38
1005.748	3196.38
1005.966	3258.38
1006.184	3151.38
1006.401	3179.38
1006.618	3164.38
1006.836	3117.38
1007.053	3111.38
1007.271	3120.38
1007.488	3064.38
1007.705	3129.38
1007.922	3062.38
1008.139	3038.38
1008.357	3026.38
1008.574	3035.38
1008.791	3045.38
1009.008	3048.38
1009.225	3030.38
1009.441	3074.38
1009.658	3056.38
1009.875	3045.38
1010.092	3028.38
1010.309	3027.38
1010.525	2952.38
1010.742	2963.38
1010.958	2900.38
1011.175	2891.38
1011.391	2843.38
1011.608	2806.38
1011.824	2825.38
1012.041	2795.38
1012.257	2737.38
1012.473	2735.38
1012.689	2704.38
1012.906	2700.38
1013.122	2649.38
1013.338	2635.38
1013.554	2711.38
1013.77	2675.38
1013.986	2673.38
1014.202	2683.38
1014.418	2708.38
1014.634	2763.38
1014.849	2713.38
1015.065	2757.38
1015.281	2739.38
1015.496	2746.38
1015.712	2681.38
1015.928	2680.38
1016.143	2657.38
1016.359	2583.38
1016.574	2567.38
1016.79	2525.38
1017.005	2455.38
1017.22	2430.38
1017.435	2385.38
1017.651	2357.38
1017.866	2306.38
1018.081	2273.38
1018.296	2266.38
1018.511	2201.38
1018.726	2208.38
1018.941	2184.38
1019.156	2138.38
1019.371	2165.38
1019.586	2140.38
1019.801	2107.38
1020.015	2109.38
1020.23	2095.38
1020.445	2060.38
1020.659	2063.38
1020.874	2045.38
1021.088	2023.38
1021.303	1959.38
1021.517	1936.38
1021.732	1933.38
1021.946	1926.38
1022.16	1936.38
1022.375	1865.38
1022.589	1838.38
1022.803	1853.38
1023.017	1765.38
1023.231	1780.38
1023.445	1753.38
1023.659	1675.38
1023.873	1669.38
1024.087	1594.38
1024.301	1585.38
1024.515	1563.38
1024.729	1558.38
1024.942	1520.38
1025.156	1526.38
1025.37	1479.38
1025.583	1419.38
1025.797	1417.38
1026.01	1395.38
1026.224	1369.38
1026.437	1354.38
1026.651	1305.38
1026.864	1239.38
1027.077	1222.38
1027.291	1169.38
1027.504	1165.38
1027.717	1116.38
1027.93	1092.38
1028.143	1057.38
1028.356	1051.38
1028.569	986.38
1028.782	906.38
1028.995	-0.62
1029.208	-0.62
1029.421	-0.62
1029.634	-3.62
