Data from QEP037381__198__15-14-19-040.txt Node

Date: Mon Mar 14 15:14:19 EDT 2022
User: dcclab
Spectrometer: QEP03738
Trigger mode: 4
Integration Time (sec): 1.500000E0
Scans to average: 1
Electric dark correction enabled: true
Nonlinearity correction enabled: false
Boxcar width: 0
XAxis mode: Wavelengths
Number of Pixels in Spectrum: 1044
>>>>>Begin Spectral Data<<<<<
783.959	8.62
784.218	2.62
784.476	-1.38
784.734	-4.38
784.992	278.62
785.251	270.62
785.509	286.62
785.767	288.62
786.025	297.62
786.283	292.62
786.541	305.62
786.798	312.62
787.056	304.62
787.314	289.62
787.572	309.62
787.83	318.62
788.087	314.62
788.345	302.62
788.602	320.62
788.86	336.62
789.117	321.62
789.375	333.62
789.632	314.62
789.89	344.62
790.147	346.62
790.404	374.62
790.661	364.62
790.919	368.62
791.176	388.62
791.433	380.62
791.69	404.62
791.947	415.62
792.204	409.62
792.461	437.62
792.718	449.62
792.974	456.62
793.231	486.62
793.488	504.62
793.745	520.62
794.001	555.62
794.258	591.62
794.514	587.62
794.771	643.62
795.027	664.62
795.284	708.62
795.54	772.62
795.797	821.62
796.053	911.62
796.309	951.62
796.565	1067.62
796.822	1219.62
797.078	1386.62
797.334	1601.62
797.59	1952.62
797.846	2503.62
798.102	3243.62
798.358	4419.62
798.614	6369.62
798.869	9339.62
799.125	13902.62
799.381	20333.62
799.637	29057.62
799.892	39489.62
800.148	50937.62
800.403	62078.62
800.659	71701.62
800.914	79021.62
801.17	84253.62
801.425	87596.62
801.68	89852.62
801.936	91850.62
802.191	93726.62
802.446	95641.62
802.701	97801.62
802.957	99546.62
803.212	101327.62
803.467	102943.62
803.722	104979.62
803.977	106724.62
804.232	108336.62
804.486	110502.62
804.741	112303.62
804.996	114337.62
805.251	116309.62
805.505	118046.62
805.76	119936.62
806.015	121103.62
806.269	122438.62
806.524	123574.62
806.778	124856.62
807.033	125507.62
807.287	126781.62
807.541	127906.62
807.796	129751.62
808.05	130684.62
808.304	131638.62
808.558	132249.62
808.812	132843.62
809.066	133833.62
809.32	134715.62
809.574	135629.62
809.828	136093.62
810.082	136855.62
810.336	137643.62
810.59	138909.62
810.844	140290.62
811.097	141761.62
811.351	143576.62
811.605	145555.62
811.858	147673.62
812.112	149750.62
812.365	151666.62
812.619	153895.62
812.872	155584.62
813.126	157399.62
813.379	159097.62
813.632	160983.62
813.885	162474.62
814.139	164356.62
814.392	166664.62
814.645	168764.62
814.898	171763.62
815.151	174190.62
815.404	177356.62
815.657	179613.62
815.91	181643.62
816.163	183052.62
816.416	184636.62
816.668	185556.62
816.921	186380.62
817.174	186497.62
817.426	186626.62
817.679	186157.62
817.931	185656.62
818.184	185487.62
818.436	185360.62
818.689	184970.62
818.941	185025.62
819.194	185372.62
819.446	185528.62
819.698	185912.62
819.95	186533.62
820.202	186834.62
820.455	187108.62
820.707	187553.62
820.959	187363.62
821.211	186975.62
821.462	186622.62
821.714	186140.62
821.966	185464.62
822.218	184699.62
822.47	183674.62
822.722	182913.62
822.973	181669.62
823.225	181283.62
823.476	181337.62
823.728	180574.62
823.979	180813.62
824.231	180373.62
824.482	179952.62
824.734	180003.62
824.985	179762.62
825.236	179634.62
825.487	178750.62
825.739	178006.62
825.99	177064.62
826.241	176160.62
826.492	175347.62
826.743	174194.62
826.994	173327.62
827.245	172376.62
827.496	171977.62
827.747	171459.62
827.997	171044.62
828.248	171092.62
828.499	170862.62
828.75	170468.62
829	170594.62
829.251	170311.62
829.501	170090.62
829.752	169267.62
830.002	167987.62
830.253	166651.62
830.503	165877.62
830.753	164664.62
831.004	163372.62
831.254	162258.62
831.504	161693.62
831.754	161484.62
832.004	160962.62
832.254	160933.62
832.504	160727.62
832.754	160409.62
833.004	160063.62
833.254	159654.62
833.504	159045.62
833.754	157988.62
834.003	157563.62
834.253	156653.62
834.503	155765.62
834.752	154546.62
835.002	153673.62
835.252	152615.62
835.501	152044.62
835.75	151552.62
836	150650.62
836.249	150295.62
836.499	150220.62
836.748	149747.62
836.997	149512.62
837.246	149607.62
837.495	149553.62
837.744	149333.62
837.993	149267.62
838.242	148837.62
838.491	148564.62
838.74	147240.62
838.989	146273.62
839.238	145179.62
839.487	144378.62
839.736	143594.62
839.984	142797.62
840.233	142043.62
840.482	141297.62
840.73	140627.62
840.979	140178.62
841.227	139346.62
841.476	138785.62
841.724	137924.62
841.972	137652.62
842.221	137221.62
842.469	136602.62
842.717	136006.62
842.965	135274.62
843.213	135128.62
843.461	134403.62
843.71	133495.62
843.958	132562.62
844.205	132303.62
844.453	132075.62
844.701	131746.62
844.949	131765.62
845.197	131147.62
845.445	130818.62
845.692	131155.62
845.94	130852.62
846.188	130560.62
846.435	130559.62
846.683	130041.62
846.93	129353.62
847.178	129086.62
847.425	127552.62
847.672	126519.62
847.92	125473.62
848.167	124104.62
848.414	122873.62
848.661	122028.62
848.908	120886.62
849.155	120555.62
849.402	120412.62
849.649	120318.62
849.896	120331.62
850.143	120549.62
850.39	121105.62
850.637	120930.62
850.884	120614.62
851.131	120664.62
851.377	120191.62
851.624	119690.62
851.87	118786.62
852.117	118457.62
852.364	117334.62
852.61	116835.62
852.856	116532.62
853.103	115555.62
853.349	114793.62
853.595	114298.62
853.842	113619.62
854.088	113583.62
854.334	114206.62
854.58	113652.62
854.826	113315.62
855.072	112260.62
855.318	111530.62
855.564	110453.62
855.81	109353.62
856.056	108327.62
856.302	107533.62
856.548	106565.62
856.793	105938.62
857.039	105450.62
857.285	104974.62
857.53	104936.62
857.776	105033.62
858.021	105271.62
858.267	105565.62
858.512	105566.62
858.758	105633.62
859.003	105592.62
859.248	105654.62
859.493	105230.62
859.739	105019.62
859.984	104289.62
860.229	104047.62
860.474	103318.62
860.719	102542.62
860.964	101840.62
861.209	101352.62
861.454	100619.62
861.699	99496.62
861.943	99121.62
862.188	98658.62
862.433	98212.62
862.678	97715.62
862.922	97714.62
863.167	97378.62
863.411	96952.62
863.656	96564.62
863.9	96383.62
864.145	95890.62
864.389	95275.62
864.634	94952.62
864.878	94233.62
865.122	94202.62
865.366	93763.62
865.61	93636.62
865.855	93347.62
866.099	92944.62
866.343	92494.62
866.587	92081.62
866.831	92079.62
867.074	92028.62
867.318	91858.62
867.562	91811.62
867.806	91437.62
868.05	91375.62
868.293	91163.62
868.537	90789.62
868.78	90531.62
869.024	90239.62
869.267	89384.62
869.511	88713.62
869.754	87714.62
869.998	86941.62
870.241	86019.62
870.484	85295.62
870.728	85050.62
870.971	84419.62
871.214	84009.62
871.457	83825.62
871.7	83784.62
871.943	83679.62
872.186	83847.62
872.429	83784.62
872.672	83734.62
872.915	83613.62
873.158	83213.62
873.4	83184.62
873.643	82837.62
873.886	82447.62
874.128	82327.62
874.371	82206.62
874.613	81818.62
874.856	81581.62
875.098	81012.62
875.341	80958.62
875.583	80500.62
875.825	80195.62
876.068	79780.62
876.31	79280.62
876.552	78916.62
876.794	77975.62
877.036	77389.62
877.278	76847.62
877.52	76442.62
877.762	75901.62
878.004	75532.62
878.246	75350.62
878.488	75236.62
878.73	75197.62
878.972	74905.62
879.213	74736.62
879.455	74591.62
879.697	74249.62
879.938	74193.62
880.18	73839.62
880.421	73565.62
880.663	73165.62
880.904	72887.62
881.145	72722.62
881.387	72763.62
881.628	72536.62
881.869	72489.62
882.11	72345.62
882.352	72087.62
882.593	71823.62
882.834	71770.62
883.075	71459.62
883.316	71185.62
883.557	71058.62
883.797	70534.62
884.038	70019.62
884.279	69127.62
884.52	68448.62
884.761	67925.62
885.001	67383.62
885.242	67039.62
885.482	66456.62
885.723	65766.62
885.963	65408.62
886.204	65341.62
886.444	65074.62
886.685	64709.62
886.925	64417.62
887.165	64002.62
887.405	63871.62
887.646	63637.62
887.886	63359.62
888.126	63291.62
888.366	63248.62
888.606	63324.62
888.846	63342.62
889.086	63730.62
889.326	63345.62
889.565	63389.62
889.805	63207.62
890.045	62933.62
890.285	62668.62
890.524	62598.62
890.764	62214.62
891.003	61612.62
891.243	61055.62
891.482	60481.62
891.722	60043.62
891.961	59553.62
892.201	59083.62
892.44	58793.62
892.679	58509.62
892.918	58372.62
893.158	58204.62
893.397	58050.62
893.636	57656.62
893.875	57419.62
894.114	57285.62
894.353	57099.62
894.592	56697.62
894.831	56313.62
895.069	56153.62
895.308	55639.62
895.547	55389.62
895.786	55219.62
896.024	54881.62
896.263	54765.62
896.501	54383.62
896.74	54433.62
896.978	54331.62
897.217	54118.62
897.455	54218.62
897.694	53761.62
897.932	53450.62
898.17	53557.62
898.408	53383.62
898.646	53139.62
898.885	52676.62
899.123	52406.62
899.361	51988.62
899.599	51795.62
899.837	51327.62
900.075	51135.62
900.312	50852.62
900.55	50308.62
900.788	49876.62
901.026	49241.62
901.263	48893.62
901.501	48679.62
901.739	48390.62
901.976	47874.62
902.214	47817.62
902.451	47618.62
902.689	47341.62
902.926	47384.62
903.163	47256.62
903.401	47211.62
903.638	47166.62
903.875	47068.62
904.112	46967.62
904.349	46919.62
904.586	46702.62
904.823	46480.62
905.06	46267.62
905.297	45887.62
905.534	45564.62
905.771	45091.62
906.008	44841.62
906.245	44496.62
906.481	44281.62
906.718	43963.62
906.955	43831.62
907.191	43531.62
907.428	43260.62
907.664	43188.62
907.901	42919.62
908.137	42665.62
908.374	42442.62
908.61	42423.62
908.846	42175.62
909.083	42019.62
909.319	41695.62
909.555	41372.62
909.791	40987.62
910.027	40617.62
910.263	40335.62
910.499	39921.62
910.735	39619.62
910.971	39255.62
911.207	39152.62
911.443	38802.62
911.678	38546.62
911.914	38450.62
912.15	38390.62
912.385	38238.62
912.621	38350.62
912.857	38229.62
913.092	38104.62
913.328	37886.62
913.563	37775.62
913.798	37846.62
914.034	37658.62
914.269	37713.62
914.504	37432.62
914.739	37201.62
914.975	37094.62
915.21	36760.62
915.445	36377.62
915.68	36079.62
915.915	35831.62
916.15	35435.62
916.384	35091.62
916.619	34675.62
916.854	34215.62
917.089	34131.62
917.324	33833.62
917.558	33531.62
917.793	33236.62
918.028	33173.62
918.262	33132.62
918.497	33034.62
918.731	32972.62
918.965	32908.62
919.2	32698.62
919.434	32614.62
919.668	32751.62
919.903	32565.62
920.137	32332.62
920.371	32267.62
920.605	32112.62
920.839	31792.62
921.073	31522.62
921.307	31254.62
921.541	31088.62
921.775	30893.62
922.009	30720.62
922.243	30714.62
922.476	30545.62
922.71	30446.62
922.944	30439.62
923.177	30263.62
923.411	30261.62
923.644	30220.62
923.878	30049.62
924.111	29811.62
924.345	29724.62
924.578	29472.62
924.811	29366.62
925.045	29177.62
925.278	28980.62
925.511	28666.62
925.744	28482.62
925.977	28328.62
926.21	27949.62
926.443	27732.62
926.676	27527.62
926.909	27274.62
927.142	27180.62
927.375	26870.62
927.608	26707.62
927.841	26559.62
928.073	26463.62
928.306	26241.62
928.539	26285.62
928.771	26193.62
929.004	26264.62
929.236	26064.62
929.469	26187.62
929.701	26155.62
929.933	26133.62
930.166	26115.62
930.398	26004.62
930.63	25930.62
930.862	25809.62
931.094	25787.62
931.327	25568.62
931.559	25317.62
931.791	25064.62
932.023	25006.62
932.255	24854.62
932.486	24554.62
932.718	24422.62
932.95	24273.62
933.182	24099.62
933.413	23869.62
933.645	23935.62
933.877	23683.62
934.108	23627.62
934.34	23551.62
934.571	23424.62
934.803	23179.62
935.034	23190.62
935.265	23191.62
935.497	23037.62
935.728	22866.62
935.959	22835.62
936.19	22648.62
936.422	22483.62
936.653	22449.62
936.884	22273.62
937.115	22148.62
937.346	22066.62
937.577	21810.62
937.807	21717.62
938.038	21542.62
938.269	21627.62
938.5	21498.62
938.73	21367.62
938.961	21270.62
939.192	21416.62
939.422	21311.62
939.653	21308.62
939.883	21121.62
940.114	21145.62
940.344	21027.62
940.574	20895.62
940.805	20771.62
941.035	20594.62
941.265	20553.62
941.495	20444.62
941.726	20175.62
941.956	19964.62
942.186	19969.62
942.416	19614.62
942.646	19439.62
942.876	19354.62
943.105	19131.62
943.335	19095.62
943.565	18894.62
943.795	18750.62
944.024	18528.62
944.254	18396.62
944.484	18196.62
944.713	18257.62
944.943	18198.62
945.172	18079.62
945.402	17999.62
945.631	17982.62
945.86	17844.62
946.09	17947.62
946.319	17840.62
946.548	17754.62
946.777	17720.62
947.006	17602.62
947.235	17595.62
947.465	17477.62
947.694	17355.62
947.922	17228.62
948.151	17023.62
948.38	16921.62
948.609	16829.62
948.838	16648.62
949.067	16633.62
949.295	16438.62
949.524	16300.62
949.752	16265.62
949.981	16100.62
950.21	15900.62
950.438	15866.62
950.666	15898.62
950.895	15681.62
951.123	15583.62
951.351	15580.62
951.58	15413.62
951.808	15279.62
952.036	15209.62
952.264	15152.62
952.492	15011.62
952.72	14951.62
952.948	14906.62
953.176	14770.62
953.404	14649.62
953.632	14421.62
953.86	14385.62
954.088	14272.62
954.315	14112.62
954.543	14063.62
954.771	14034.62
954.998	13892.62
955.226	13936.62
955.453	13818.62
955.681	13756.62
955.908	13725.62
956.135	13527.62
956.363	13533.62
956.59	13624.62
956.817	13513.62
957.045	13503.62
957.272	13438.62
957.499	13356.62
957.726	13310.62
957.953	13196.62
958.18	13225.62
958.407	13048.62
958.634	12970.62
958.861	12945.62
959.087	12795.62
959.314	12678.62
959.541	12637.62
959.767	12585.62
959.994	12410.62
960.221	12332.62
960.447	12273.62
960.674	12139.62
960.9	12030.62
961.127	11916.62
961.353	11870.62
961.579	11772.62
961.806	11646.62
962.032	11577.62
962.258	11523.62
962.484	11507.62
962.71	11368.62
962.936	11372.62
963.162	11354.62
963.388	11333.62
963.614	11275.62
963.84	11361.62
964.066	11267.62
964.292	11166.62
964.518	11074.62
964.743	11088.62
964.969	11044.62
965.195	10930.62
965.42	10887.62
965.646	10870.62
965.871	10739.62
966.097	10732.62
966.322	10637.62
966.547	10599.62
966.773	10492.62
966.998	10485.62
967.223	10420.62
967.448	10352.62
967.674	10265.62
967.899	10158.62
968.124	10148.62
968.349	10131.62
968.574	10031.62
968.799	9988.62
969.024	9901.62
969.248	9880.62
969.473	9739.62
969.698	9631.62
969.923	9670.62
970.147	9598.62
970.372	9513.62
970.596	9500.62
970.821	9402.62
971.046	9448.62
971.27	9262.62
971.494	9206.62
971.719	9239.62
971.943	9146.62
972.167	9010.62
972.392	8975.62
972.616	8872.62
972.84	8826.62
973.064	8850.62
973.288	8790.62
973.512	8774.62
973.736	8753.62
973.96	8679.62
974.184	8648.62
974.408	8572.62
974.631	8532.62
974.855	8540.62
975.079	8467.62
975.303	8428.62
975.526	8418.62
975.75	8331.62
975.973	8339.62
976.197	8309.62
976.42	8298.62
976.644	8209.62
976.867	8127.62
977.09	8123.62
977.313	8056.62
977.537	7946.62
977.76	7864.62
977.983	7806.62
978.206	7812.62
978.429	7714.62
978.652	7640.62
978.875	7615.62
979.098	7559.62
979.321	7471.62
979.544	7399.62
979.767	7433.62
979.989	7377.62
980.212	7278.62
980.435	7291.62
980.657	7210.62
980.88	7193.62
981.102	7093.62
981.325	7080.62
981.547	7026.62
981.77	6996.62
981.992	6893.62
982.214	6943.62
982.437	6931.62
982.659	6895.62
982.881	6830.62
983.103	6814.62
983.325	6762.62
983.547	6728.62
983.769	6715.62
983.991	6649.62
984.213	6650.62
984.435	6588.62
984.657	6498.62
984.879	6540.62
985.1	6433.62
985.322	6439.62
985.544	6426.62
985.765	6338.62
985.987	6293.62
986.208	6335.62
986.43	6271.62
986.651	6197.62
986.873	6168.62
987.094	6127.62
987.315	6105.62
987.536	6053.62
987.758	6060.62
987.979	5991.62
988.2	5966.62
988.421	5873.62
988.642	5875.62
988.863	5832.62
989.084	5785.62
989.305	5725.62
989.526	5690.62
989.747	5663.62
989.967	5644.62
990.188	5534.62
990.409	5525.62
990.629	5536.62
990.85	5463.62
991.071	5414.62
991.291	5379.62
991.512	5335.62
991.732	5385.62
991.952	5310.62
992.173	5231.62
992.393	5286.62
992.613	5223.62
992.834	5199.62
993.054	5221.62
993.274	5168.62
993.494	5118.62
993.714	5159.62
993.934	5089.62
994.154	5047.62
994.374	5033.62
994.594	5020.62
994.813	4975.62
995.033	4966.62
995.253	4925.62
995.473	4884.62
995.692	4814.62
995.912	4825.62
996.131	4782.62
996.351	4783.62
996.57	4721.62
996.79	4652.62
997.009	4622.62
997.228	4568.62
997.448	4537.62
997.667	4515.62
997.886	4414.62
998.105	4392.62
998.325	4376.62
998.544	4340.62
998.763	4324.62
998.982	4280.62
999.201	4228.62
999.419	4259.62
999.638	4217.62
999.857	4192.62
1000.076	4127.62
1000.295	4109.62
1000.513	4114.62
1000.732	4076.62
1000.95	4043.62
1001.169	4048.62
1001.388	4032.62
1001.606	4014.62
1001.824	3985.62
1002.043	3971.62
1002.261	3944.62
1002.479	3929.62
1002.698	3900.62
1002.916	3878.62
1003.134	3916.62
1003.352	3846.62
1003.57	3764.62
1003.788	3823.62
1004.006	3746.62
1004.224	3747.62
1004.442	3716.62
1004.66	3734.62
1004.878	3660.62
1005.095	3685.62
1005.313	3638.62
1005.531	3638.62
1005.748	3610.62
1005.966	3659.62
1006.184	3562.62
1006.401	3565.62
1006.618	3520.62
1006.836	3492.62
1007.053	3516.62
1007.271	3470.62
1007.488	3399.62
1007.705	3470.62
1007.922	3431.62
1008.139	3411.62
1008.357	3430.62
1008.574	3397.62
1008.791	3423.62
1009.008	3408.62
1009.225	3406.62
1009.441	3419.62
1009.658	3366.62
1009.875	3355.62
1010.092	3337.62
1010.309	3347.62
1010.525	3279.62
1010.742	3263.62
1010.958	3250.62
1011.175	3198.62
1011.391	3182.62
1011.608	3156.62
1011.824	3085.62
1012.041	3069.62
1012.257	3049.62
1012.473	3018.62
1012.689	3031.62
1012.906	3013.62
1013.122	2976.62
1013.338	2971.62
1013.554	2958.62
1013.77	2967.62
1013.986	2974.62
1014.202	2933.62
1014.418	2952.62
1014.634	3025.62
1014.849	3016.62
1015.065	3047.62
1015.281	3023.62
1015.496	2983.62
1015.712	2985.62
1015.928	2934.62
1016.143	2937.62
1016.359	2894.62
1016.574	2853.62
1016.79	2760.62
1017.005	2737.62
1017.22	2701.62
1017.435	2639.62
1017.651	2613.62
1017.866	2573.62
1018.081	2529.62
1018.296	2473.62
1018.511	2448.62
1018.726	2434.62
1018.941	2441.62
1019.156	2383.62
1019.371	2381.62
1019.586	2361.62
1019.801	2350.62
1020.015	2322.62
1020.23	2302.62
1020.445	2279.62
1020.659	2258.62
1020.874	2220.62
1021.088	2266.62
1021.303	2176.62
1021.517	2140.62
1021.732	2143.62
1021.946	2152.62
1022.16	2117.62
1022.375	2085.62
1022.589	2088.62
1022.803	2052.62
1023.017	1995.62
1023.231	1951.62
1023.445	1952.62
1023.659	1874.62
1023.873	1872.62
1024.087	1795.62
1024.301	1757.62
1024.515	1757.62
1024.729	1721.62
1024.942	1706.62
1025.156	1681.62
1025.37	1654.62
1025.583	1626.62
1025.797	1606.62
1026.01	1558.62
1026.224	1488.62
1026.437	1459.62
1026.651	1434.62
1026.864	1389.62
1027.077	1352.62
1027.291	1328.62
1027.504	1297.62
1027.717	1238.62
1027.93	1229.62
1028.143	1224.62
1028.356	1145.62
1028.569	1076.62
1028.782	1028.62
1028.995	0.62
1029.208	-5.38
1029.421	-1.38
1029.634	0.62
