Data from QEP037381__170__15-12-41-539.txt Node

Date: Mon Mar 14 15:12:41 EDT 2022
User: dcclab
Spectrometer: QEP03738
Trigger mode: 4
Integration Time (sec): 1.500000E0
Scans to average: 1
Electric dark correction enabled: true
Nonlinearity correction enabled: false
Boxcar width: 0
XAxis mode: Wavelengths
Number of Pixels in Spectrum: 1044
>>>>>Begin Spectral Data<<<<<
783.959	10
784.218	0
784.476	-3
784.734	-1
784.992	247
785.251	232
785.509	245
785.767	247
786.025	252
786.283	245
786.541	243
786.798	245
787.056	252
787.314	238
787.572	257
787.83	265
788.087	266
788.345	268
788.602	272
788.86	254
789.117	285
789.375	268
789.632	275
789.89	271
790.147	292
790.404	290
790.661	296
790.919	329
791.176	312
791.433	330
791.69	318
791.947	333
792.204	348
792.461	361
792.718	362
792.974	370
793.231	377
793.488	413
793.745	421
794.001	437
794.258	474
794.514	484
794.771	511
795.027	537
795.284	571
795.54	610
795.797	647
796.053	698
796.309	767
796.565	843
796.822	948
797.078	1109
797.334	1268
797.59	1543
797.846	1931
798.102	2547
798.358	3496
798.614	5059
798.869	7269
799.125	10890
799.381	15958
799.637	22797
799.892	30914
800.148	39850
800.403	48520
800.659	55782
800.914	61343
801.17	65376
801.425	67775
801.68	69589
801.936	71077
802.191	72634
802.446	73938
802.701	75449
802.957	76940
803.212	78501
803.467	79855
803.722	81310
803.977	82797
804.232	84092
804.486	85798
804.741	87245
804.996	88489
805.251	89957
805.505	91403
805.76	92886
806.015	94121
806.269	94959
806.524	95894
806.778	96637
807.033	97368
807.287	98549
807.541	99730
807.796	100769
808.05	101690
808.304	102368
808.558	103143
808.812	103709
809.066	104194
809.32	104727
809.574	105321
809.828	105976
810.082	106867
810.336	107484
810.59	108434
810.844	109256
811.097	110677
811.351	111877
811.605	113560
811.858	115061
812.112	116809
812.365	118532
812.619	120459
812.872	121772
813.126	123301
813.379	124753
813.632	125999
813.885	127509
814.139	129282
814.392	130903
814.645	132809
814.898	134923
815.151	137188
815.404	139509
815.657	141605
815.91	143694
816.163	145247
816.416	146605
816.668	147557
816.921	148246
817.174	148186
817.426	148413
817.679	148168
817.931	147846
818.184	147440
818.436	147234
818.689	147347
818.941	147406
819.194	147952
819.446	148208
819.698	148403
819.95	148643
820.202	149118
820.455	149686
820.707	149718
820.959	149745
821.211	149533
821.462	149476
821.714	148756
821.966	148006
822.218	147170
822.47	146457
822.722	145280
822.973	144832
823.225	144227
823.476	144184
823.728	143699
823.979	143787
824.231	143341
824.482	143357
824.734	143070
824.985	143432
825.236	143117
825.487	142473
825.739	141583
825.99	140976
826.241	140230
826.492	139463
826.743	138720
826.994	137986
827.245	137626
827.496	136729
827.747	136496
827.997	136556
828.248	136602
828.499	136276
828.75	136357
829	136109
829.251	135944
829.501	135470
829.752	134643
830.002	133908
830.253	133052
830.503	131867
830.753	131101
831.004	130360
831.254	129391
831.504	129295
831.754	128600
832.004	128636
832.254	128301
832.504	128404
832.754	128056
833.004	127892
833.254	127594
833.504	127140
833.754	126482
834.003	125850
834.253	125228
834.503	124452
834.752	123756
835.002	122731
835.252	122225
835.501	121670
835.75	121210
836	120888
836.249	120715
836.499	120196
836.748	120116
836.997	119731
837.246	119848
837.495	119920
837.744	119997
837.993	120037
838.242	119450
838.491	119495
838.74	118530
838.989	117298
839.238	116542
839.487	116025
839.736	115362
839.984	114557
840.233	113937
840.482	113601
840.73	113114
840.979	112503
841.227	112156
841.476	111498
841.724	111187
841.972	110939
842.221	110526
842.469	110105
842.717	109440
842.965	108968
843.213	108645
843.461	108198
843.71	107479
843.958	107030
844.205	106424
844.453	106446
844.701	106048
844.949	106172
845.197	105867
845.445	105689
845.692	105847
845.94	105718
846.188	105493
846.435	105328
846.683	105117
846.93	104578
847.178	103945
847.425	103086
847.672	102270
847.92	101313
848.167	100386
848.414	99097
848.661	98498
848.908	97857
849.155	97498
849.402	97175
849.649	97072
849.896	97339
850.143	97907
850.39	98090
850.637	97923
850.884	97742
851.131	97560
851.377	97051
851.624	96662
851.87	96209
852.117	95769
852.364	95214
852.61	94704
852.856	94390
853.103	93751
853.349	93191
853.595	92608
853.842	92164
854.088	92021
854.334	92038
854.58	92260
854.826	91606
855.072	90872
855.318	90348
855.564	89593
855.81	88468
856.056	87915
856.302	87138
856.548	86627
856.793	85998
857.039	85647
857.285	85430
857.53	85090
857.776	85414
858.021	85366
858.267	85560
858.512	85649
858.758	85665
859.003	85977
859.248	85704
859.493	85537
859.739	85332
859.984	84918
860.229	84479
860.474	84009
860.719	83319
860.964	82735
861.209	82209
861.454	81508
861.699	80973
861.943	80495
862.188	80432
862.433	80038
862.678	79687
862.922	79325
863.167	79164
863.411	78808
863.656	78635
863.9	78304
864.145	78192
864.389	77640
864.634	77027
864.878	76939
865.122	76624
865.366	76354
865.61	76027
865.855	75915
866.099	75695
866.343	75450
866.587	75028
866.831	75006
867.074	74786
867.318	74964
867.562	74600
867.806	74717
868.05	74520
868.293	74249
868.537	74061
868.78	73854
869.024	73297
869.267	72917
869.511	72220
869.754	71623
869.998	70928
870.241	70300
870.484	70120
870.728	69469
870.971	68774
871.214	68548
871.457	68340
871.7	68245
871.943	68177
872.186	68243
872.429	68367
872.672	68129
872.915	68281
873.158	68016
873.4	67970
873.643	67650
873.886	67250
874.128	66908
874.371	66861
874.613	66553
874.856	66263
875.098	66237
875.341	66197
875.583	65830
875.825	65572
876.068	65105
876.31	64464
876.552	64158
876.794	63493
877.036	62971
877.278	62561
877.52	62350
877.762	61734
878.004	61628
878.246	61698
878.488	61648
878.73	61290
878.972	61085
879.213	61137
879.455	61103
879.697	60651
879.938	60512
880.18	60227
880.421	59955
880.663	59669
880.904	59646
881.145	59379
881.387	59457
881.628	59439
881.869	59171
882.11	59070
882.352	58935
882.593	58747
882.834	58735
883.075	58350
883.316	58187
883.557	57960
883.797	57594
884.038	57231
884.279	56489
884.52	55887
884.761	55415
885.001	55042
885.242	54456
885.482	54140
885.723	53736
885.963	53529
886.204	53446
886.444	53048
886.685	52946
886.925	52605
887.165	52527
887.405	51893
887.646	51924
887.886	51829
888.126	51564
888.366	51801
888.606	51584
888.846	51819
889.086	51813
889.326	51771
889.565	51756
889.805	51475
890.045	51378
890.285	51280
890.524	50984
890.764	50871
891.003	50319
891.243	49811
891.482	49493
891.722	48974
891.961	48516
892.201	48400
892.44	47960
892.679	47886
892.918	47721
893.158	47367
893.397	47341
893.636	47265
893.875	47013
894.114	46800
894.353	46647
894.592	46442
894.831	46172
895.069	46025
895.308	45529
895.547	45206
895.786	44932
896.024	44719
896.263	44706
896.501	44436
896.74	44422
896.978	44400
897.217	44120
897.455	44127
897.694	43973
897.932	43807
898.17	43744
898.408	43609
898.646	43433
898.885	43115
899.123	42825
899.361	42473
899.599	42188
899.837	42020
900.075	41833
900.312	41508
900.55	41041
900.788	40731
901.026	40179
901.263	39937
901.501	39709
901.739	39351
901.976	39179
902.214	38932
902.451	38894
902.689	38689
902.926	38584
903.163	38441
903.401	38596
903.638	38627
903.875	38406
904.112	38470
904.349	38382
904.586	38108
904.823	38143
905.06	37760
905.297	37545
905.534	37281
905.771	36832
906.008	36592
906.245	36460
906.481	36155
906.718	36112
906.955	35943
907.191	35641
907.428	35430
907.664	35132
907.901	35135
908.137	35028
908.374	34787
908.61	34727
908.846	34627
909.083	34278
909.319	34061
909.555	33803
909.791	33624
910.027	33250
910.263	33019
910.499	32608
910.735	32439
910.971	32105
911.207	32093
911.443	31895
911.678	31720
911.914	31532
912.15	31459
912.385	31361
912.621	31325
912.857	31267
913.092	31219
913.328	31196
913.563	31148
913.798	31031
914.034	30895
914.269	30848
914.504	30624
914.739	30567
914.975	30444
915.21	30171
915.445	29927
915.68	29675
915.915	29341
916.15	28938
916.384	28670
916.619	28345
916.854	28196
917.089	27933
917.324	27895
917.558	27510
917.793	27410
918.028	27244
918.262	27281
918.497	27156
918.731	26960
918.965	27026
919.2	26936
919.434	26808
919.668	26888
919.903	26713
920.137	26654
920.371	26477
920.605	26275
920.839	25950
921.073	25879
921.307	25617
921.541	25600
921.775	25256
922.009	25295
922.243	25045
922.476	25069
922.71	24950
922.944	25006
923.177	24902
923.411	24862
923.644	24761
923.878	24660
924.111	24622
924.345	24393
924.578	24228
924.811	24159
925.045	23902
925.278	23809
925.511	23580
925.744	23535
925.977	23217
926.21	23062
926.443	22808
926.676	22615
926.909	22483
927.142	22255
927.375	22155
927.608	22031
927.841	21834
928.073	21755
928.306	21767
928.539	21727
928.771	21540
929.004	21573
929.236	21588
929.469	21590
929.701	21625
929.933	21604
930.166	21603
930.398	21443
930.63	21450
930.862	21403
931.094	21185
931.327	21093
931.559	20920
931.791	20800
932.023	20604
932.255	20434
932.486	20220
932.718	20192
932.95	20002
933.182	19912
933.413	19804
933.645	19659
933.877	19552
934.108	19410
934.34	19438
934.571	19309
934.803	19290
935.034	19159
935.265	19087
935.497	19016
935.728	18912
935.959	18820
936.19	18853
936.422	18656
936.653	18546
936.884	18498
937.115	18286
937.346	18143
937.577	17966
937.807	17859
938.038	17850
938.269	17900
938.5	17719
938.73	17746
938.961	17672
939.192	17643
939.422	17536
939.653	17583
939.883	17547
940.114	17490
940.344	17439
940.574	17382
940.805	17269
941.035	17192
941.265	17032
941.495	16880
941.726	16667
941.956	16577
942.186	16435
942.416	16428
942.646	16323
942.876	16031
943.105	15901
943.335	15824
943.565	15653
943.795	15589
944.024	15403
944.254	15357
944.484	15182
944.713	15143
944.943	15070
945.172	15045
945.402	14928
945.631	14919
945.86	14977
946.09	14885
946.319	14769
946.548	14795
946.777	14721
947.006	14746
947.235	14599
947.465	14564
947.694	14496
947.922	14302
948.151	14317
948.38	14163
948.609	14036
948.838	13928
949.067	13845
949.295	13776
949.524	13668
949.752	13568
949.981	13509
950.21	13325
950.438	13283
950.666	13230
950.895	13081
951.123	12947
951.351	12820
951.58	12838
951.808	12727
952.036	12683
952.264	12584
952.492	12677
952.72	12551
952.948	12402
953.176	12329
953.404	12225
953.632	12180
953.86	12088
954.088	11932
954.315	11898
954.543	11793
954.771	11718
954.998	11641
955.226	11636
955.453	11500
955.681	11483
955.908	11446
956.135	11428
956.363	11381
956.59	11362
956.817	11368
957.045	11260
957.272	11257
957.499	11118
957.726	11170
957.953	11075
958.18	11019
958.407	10954
958.634	10819
958.861	10845
959.087	10779
959.314	10717
959.541	10617
959.767	10543
959.994	10372
960.221	10389
960.447	10264
960.674	10139
960.9	10125
961.127	10032
961.353	9962
961.579	9859
961.806	9833
962.032	9707
962.258	9759
962.484	9679
962.71	9653
962.936	9679
963.162	9563
963.388	9538
963.614	9514
963.84	9485
964.066	9432
964.292	9389
964.518	9335
964.743	9337
964.969	9267
965.195	9221
965.42	9202
965.646	9118
965.871	9142
966.097	8951
966.322	8971
966.547	8873
966.773	8876
966.998	8758
967.223	8768
967.448	8762
967.674	8676
967.899	8600
968.124	8513
968.349	8483
968.574	8380
968.799	8392
969.024	8296
969.248	8249
969.473	8236
969.698	8197
969.923	8131
970.147	8084
970.372	8031
970.596	8004
970.821	7949
971.046	7908
971.27	7797
971.494	7805
971.719	7722
971.943	7702
972.167	7629
972.392	7569
972.616	7565
972.84	7461
973.064	7408
973.288	7435
973.512	7339
973.736	7322
973.96	7355
974.184	7280
974.408	7254
974.631	7227
974.855	7186
975.079	7199
975.303	7045
975.526	7083
975.75	7072
975.973	7041
976.197	6964
976.42	6983
976.644	6946
976.867	6820
977.09	6848
977.313	6784
977.537	6733
977.76	6642
977.983	6632
978.206	6518
978.429	6531
978.652	6507
978.875	6467
979.098	6373
979.321	6315
979.544	6326
979.767	6241
979.989	6225
980.212	6189
980.435	6072
980.657	6063
980.88	6047
981.102	5998
981.325	5998
981.547	5913
981.77	5952
981.992	5907
982.214	5915
982.437	5868
982.659	5798
982.881	5834
983.103	5765
983.325	5739
983.547	5700
983.769	5690
983.991	5626
984.213	5673
984.435	5585
984.657	5590
984.879	5578
985.1	5483
985.322	5493
985.544	5450
985.765	5402
985.987	5430
986.208	5342
986.43	5329
986.651	5281
986.873	5246
987.094	5236
987.315	5197
987.536	5155
987.758	5096
987.979	5052
988.2	5040
988.421	5033
988.642	4978
988.863	4884
989.084	4941
989.305	4885
989.526	4830
989.747	4812
989.967	4760
990.188	4754
990.409	4713
990.629	4631
990.85	4620
991.071	4587
991.291	4561
991.512	4547
991.732	4504
991.952	4539
992.173	4494
992.393	4450
992.613	4415
992.834	4490
993.054	4381
993.274	4373
993.494	4397
993.714	4345
993.934	4303
994.154	4416
994.374	4300
994.594	4286
994.813	4249
995.033	4179
995.253	4236
995.473	4154
995.692	4164
995.912	4122
996.131	4137
996.351	4098
996.57	4025
996.79	3955
997.009	3958
997.228	3915
997.448	3896
997.667	3879
997.886	3835
998.105	3782
998.325	3735
998.544	3704
998.763	3700
998.982	3627
999.201	3646
999.419	3610
999.638	3547
999.857	3586
1000.076	3578
1000.295	3520
1000.513	3544
1000.732	3482
1000.95	3491
1001.169	3451
1001.388	3457
1001.606	3446
1001.824	3458
1002.043	3384
1002.261	3354
1002.479	3383
1002.698	3312
1002.916	3347
1003.134	3320
1003.352	3277
1003.57	3271
1003.788	3304
1004.006	3235
1004.224	3223
1004.442	3179
1004.66	3175
1004.878	3160
1005.095	3176
1005.313	3113
1005.531	3108
1005.748	3099
1005.966	3123
1006.184	3034
1006.401	3097
1006.618	3019
1006.836	3043
1007.053	2997
1007.271	2972
1007.488	2951
1007.705	2976
1007.922	2957
1008.139	2946
1008.357	2906
1008.574	2951
1008.791	2938
1009.008	2947
1009.225	2955
1009.441	2961
1009.658	3000
1009.875	2982
1010.092	2938
1010.309	2912
1010.525	2894
1010.742	2830
1010.958	2796
1011.175	2806
1011.391	2748
1011.608	2738
1011.824	2732
1012.041	2709
1012.257	2652
1012.473	2651
1012.689	2624
1012.906	2634
1013.122	2611
1013.338	2562
1013.554	2600
1013.77	2612
1013.986	2558
1014.202	2643
1014.418	2622
1014.634	2646
1014.849	2676
1015.065	2661
1015.281	2657
1015.496	2642
1015.712	2635
1015.928	2571
1016.143	2542
1016.359	2546
1016.574	2497
1016.79	2427
1017.005	2397
1017.22	2357
1017.435	2338
1017.651	2320
1017.866	2251
1018.081	2228
1018.296	2211
1018.511	2155
1018.726	2155
1018.941	2119
1019.156	2061
1019.371	2068
1019.586	2048
1019.801	2055
1020.015	2018
1020.23	2036
1020.445	2041
1020.659	1969
1020.874	1949
1021.088	1946
1021.303	1895
1021.517	1852
1021.732	1879
1021.946	1864
1022.16	1835
1022.375	1806
1022.589	1751
1022.803	1752
1023.017	1745
1023.231	1707
1023.445	1694
1023.659	1635
1023.873	1591
1024.087	1568
1024.301	1547
1024.515	1489
1024.729	1520
1024.942	1477
1025.156	1479
1025.37	1405
1025.583	1386
1025.797	1354
1026.01	1328
1026.224	1286
1026.437	1304
1026.651	1239
1026.864	1199
1027.077	1182
1027.291	1160
1027.504	1127
1027.717	1095
1027.93	1081
1028.143	1037
1028.356	998
1028.569	957
1028.782	892
1028.995	0
1029.208	-1
1029.421	-3
1029.634	-2
