Data from QEP037381__189__15-13-52-040.txt Node

Date: Mon Mar 14 15:13:52 EDT 2022
User: dcclab
Spectrometer: QEP03738
Trigger mode: 4
Integration Time (sec): 1.500000E0
Scans to average: 1
Electric dark correction enabled: true
Nonlinearity correction enabled: false
Boxcar width: 0
XAxis mode: Wavelengths
Number of Pixels in Spectrum: 1044
>>>>>Begin Spectral Data<<<<<
783.959	15.38
784.218	-1.62
784.476	-1.62
784.734	-1.62
784.992	287.38
785.251	287.38
785.509	285.38
785.767	282.38
786.025	300.38
786.283	302.38
786.541	299.38
786.798	314.38
787.056	306.38
787.314	303.38
787.572	307.38
787.83	306.38
788.087	313.38
788.345	326.38
788.602	315.38
788.86	320.38
789.117	320.38
789.375	334.38
789.632	336.38
789.89	350.38
790.147	350.38
790.404	373.38
790.661	372.38
790.919	392.38
791.176	379.38
791.433	391.38
791.69	392.38
791.947	413.38
792.204	424.38
792.461	450.38
792.718	449.38
792.974	458.38
793.231	485.38
793.488	523.38
793.745	531.38
794.001	550.38
794.258	589.38
794.514	609.38
794.771	651.38
795.027	673.38
795.284	736.38
795.54	772.38
795.797	833.38
796.053	922.38
796.309	1003.38
796.565	1093.38
796.822	1225.38
797.078	1407.38
797.334	1658.38
797.59	2017.38
797.846	2559.38
798.102	3294.38
798.358	4537.38
798.614	6448.38
798.869	9513.38
799.125	14142.38
799.381	20743.38
799.637	29350.38
799.892	40238.38
800.148	51769.38
800.403	63116.38
800.659	72937.38
800.914	80592.38
801.17	85927.38
801.425	89165.38
801.68	91551.38
801.936	93524.38
802.191	95601.38
802.446	97396.38
802.701	99385.38
802.957	101439.38
803.212	103144.38
803.467	104919.38
803.722	106981.38
803.977	108483.38
804.232	110384.38
804.486	112564.38
804.741	114400.38
804.996	116420.38
805.251	118523.38
805.505	119735.38
805.76	121884.38
806.015	123488.38
806.269	124665.38
806.524	125887.38
806.778	126775.38
807.033	127854.38
807.287	128999.38
807.541	130498.38
807.796	131862.38
808.05	132884.38
808.304	133964.38
808.558	134787.38
808.812	135330.38
809.066	136454.38
809.32	137028.38
809.574	137923.38
809.828	138658.38
810.082	139171.38
810.336	140054.38
810.59	141343.38
810.844	142646.38
811.097	144194.38
811.351	146114.38
811.605	147900.38
811.858	150238.38
812.112	151943.38
812.365	154218.38
812.619	156291.38
812.872	158116.38
813.126	160103.38
813.379	161758.38
813.632	163426.38
813.885	165368.38
814.139	167358.38
814.392	169549.38
814.645	171681.38
814.898	174518.38
815.151	177204.38
815.404	179670.38
815.657	182007.38
815.91	184054.38
816.163	185908.38
816.416	187112.38
816.668	188050.38
816.921	188639.38
817.174	188834.38
817.426	188979.38
817.679	188642.38
817.931	188179.38
818.184	187927.38
818.436	187615.38
818.689	187550.38
818.941	187650.38
819.194	187777.38
819.446	188088.38
819.698	188355.38
819.95	188980.38
820.202	189121.38
820.455	189424.38
820.707	189589.38
820.959	189895.38
821.211	189471.38
821.462	189115.38
821.714	188695.38
821.966	187858.38
822.218	186978.38
822.47	186002.38
822.722	185132.38
822.973	184438.38
823.225	183779.38
823.476	183529.38
823.728	183095.38
823.979	182891.38
824.231	182737.38
824.482	182636.38
824.734	182089.38
824.985	181955.38
825.236	182026.38
825.487	181309.38
825.739	180558.38
825.99	179625.38
826.241	178863.38
826.492	177597.38
826.743	176849.38
826.994	175943.38
827.245	175038.38
827.496	174183.38
827.747	173945.38
827.997	173783.38
828.248	173675.38
828.499	173578.38
828.75	173166.38
829	172912.38
829.251	172885.38
829.501	172325.38
829.752	171701.38
830.002	170276.38
830.253	169146.38
830.503	167872.38
830.753	166713.38
831.004	165697.38
831.254	163922.38
831.504	163916.38
831.754	163637.38
832.004	163315.38
832.254	163178.38
832.504	162864.38
832.754	162766.38
833.004	162388.38
833.254	161775.38
833.504	160953.38
833.754	160479.38
834.003	159705.38
834.253	159012.38
834.503	158032.38
834.752	156899.38
835.002	155539.38
835.252	154756.38
835.501	153902.38
835.75	153537.38
836	153002.38
836.249	152784.38
836.499	152004.38
836.748	151987.38
836.997	151611.38
837.246	151374.38
837.495	151243.38
837.744	151357.38
837.993	151225.38
838.242	150766.38
838.491	150485.38
838.74	149272.38
838.989	148128.38
839.238	147187.38
839.487	146415.38
839.736	145465.38
839.984	144873.38
840.233	143873.38
840.482	142879.38
840.73	142763.38
840.979	141821.38
841.227	141235.38
841.476	140552.38
841.724	139829.38
841.972	139397.38
842.221	139189.38
842.469	138214.38
842.717	137765.38
842.965	137347.38
843.213	136682.38
843.461	135792.38
843.71	135285.38
843.958	134587.38
844.205	134010.38
844.453	133710.38
844.701	133441.38
844.949	132923.38
845.197	132911.38
845.445	132651.38
845.692	132768.38
845.94	132759.38
846.188	132324.38
846.435	132276.38
846.683	131811.38
846.93	131070.38
847.178	130580.38
847.425	129216.38
847.672	127976.38
847.92	127083.38
848.167	125658.38
848.414	124295.38
848.661	123477.38
848.908	122513.38
849.155	122012.38
849.402	121798.38
849.649	121889.38
849.896	121668.38
850.143	122122.38
850.39	122371.38
850.637	122453.38
850.884	122413.38
851.131	122026.38
851.377	121643.38
851.624	121001.38
851.87	120353.38
852.117	119811.38
852.364	119136.38
852.61	118455.38
852.856	117798.38
853.103	116909.38
853.349	116235.38
853.595	115797.38
853.842	114982.38
854.088	115261.38
854.334	115298.38
854.58	115079.38
854.826	114474.38
855.072	113820.38
855.318	112734.38
855.564	111860.38
855.81	110797.38
856.056	109848.38
856.302	108765.38
856.548	107954.38
856.793	107312.38
857.039	106816.38
857.285	106147.38
857.53	106245.38
857.776	106096.38
858.021	106314.38
858.267	106687.38
858.512	106940.38
858.758	106951.38
859.003	107120.38
859.248	106815.38
859.493	106696.38
859.739	106405.38
859.984	105925.38
860.229	105306.38
860.474	104536.38
860.719	103765.38
860.964	103023.38
861.209	102456.38
861.454	101620.38
861.699	100966.38
861.943	100234.38
862.188	99939.38
862.433	99479.38
862.678	98798.38
862.922	98800.38
863.167	98599.38
863.411	98083.38
863.656	97623.38
863.9	97564.38
864.145	97047.38
864.389	96602.38
864.634	95839.38
864.878	95600.38
865.122	95083.38
865.366	94934.38
865.61	94714.38
865.855	94215.38
866.099	93854.38
866.343	93248.38
866.587	93259.38
866.831	93380.38
867.074	93050.38
867.318	92923.38
867.562	92969.38
867.806	92947.38
868.05	92675.38
868.293	92443.38
868.537	91809.38
868.78	91621.38
869.024	91248.38
869.267	90393.38
869.511	89660.38
869.754	88768.38
869.998	87932.38
870.241	87039.38
870.484	86641.38
870.728	86028.38
870.971	85466.38
871.214	85116.38
871.457	84776.38
871.7	84696.38
871.943	84634.38
872.186	84793.38
872.429	84661.38
872.672	84704.38
872.915	84427.38
873.158	84275.38
873.4	84082.38
873.643	83837.38
873.886	83603.38
874.128	83330.38
874.371	83093.38
874.613	82677.38
874.856	82444.38
875.098	82226.38
875.341	81769.38
875.583	81405.38
875.825	81187.38
876.068	80673.38
876.31	80175.38
876.552	79551.38
876.794	78788.38
877.036	78117.38
877.278	77620.38
877.52	77210.38
877.762	76692.38
878.004	76295.38
878.246	76255.38
878.488	76253.38
878.73	75963.38
878.972	75721.38
879.213	75604.38
879.455	75441.38
879.697	75157.38
879.938	74909.38
880.18	74649.38
880.421	73965.38
880.663	73866.38
880.904	73780.38
881.145	73557.38
881.387	73555.38
881.628	73458.38
881.869	73367.38
882.11	73064.38
882.352	72736.38
882.593	72744.38
882.834	72451.38
883.075	72359.38
883.316	71801.38
883.557	71833.38
883.797	71439.38
884.038	71000.38
884.279	70031.38
884.52	69047.38
884.761	68654.38
885.001	68111.38
885.242	67526.38
885.482	67199.38
885.723	66540.38
885.963	66346.38
886.204	66002.38
886.444	65783.38
886.685	65479.38
886.925	65019.38
887.165	64667.38
887.405	64380.38
887.646	64348.38
887.886	64057.38
888.126	63843.38
888.366	64013.38
888.606	63968.38
888.846	64079.38
889.086	64134.38
889.326	64082.38
889.565	64152.38
889.805	63713.38
890.045	63707.38
890.285	63296.38
890.524	63271.38
890.764	62869.38
891.003	62472.38
891.243	61697.38
891.482	61136.38
891.722	60635.38
891.961	60142.38
892.201	59749.38
892.44	59415.38
892.679	59155.38
892.918	58927.38
893.158	58602.38
893.397	58590.38
893.636	58253.38
893.875	58042.38
894.114	57838.38
894.353	57510.38
894.592	57413.38
894.831	57117.38
895.069	56707.38
895.308	56222.38
895.547	55869.38
895.786	55511.38
896.024	55590.38
896.263	55255.38
896.501	55023.38
896.74	54977.38
896.978	54867.38
897.217	54860.38
897.455	54580.38
897.694	54293.38
897.932	54083.38
898.17	54066.38
898.408	53845.38
898.646	53590.38
898.885	53359.38
899.123	53016.38
899.361	52658.38
899.599	52310.38
899.837	51938.38
900.075	51773.38
900.312	51206.38
900.55	50854.38
900.788	50388.38
901.026	49784.38
901.263	49480.38
901.501	49156.38
901.739	48767.38
901.976	48270.38
902.214	48289.38
902.451	48184.38
902.689	48017.38
902.926	47742.38
903.163	47676.38
903.401	47626.38
903.638	47494.38
903.875	47442.38
904.112	47394.38
904.349	47277.38
904.586	47152.38
904.823	46910.38
905.06	46640.38
905.297	46512.38
905.534	45947.38
905.771	45593.38
906.008	45469.38
906.245	44917.38
906.481	44657.38
906.718	44475.38
906.955	44259.38
907.191	43968.38
907.428	43669.38
907.664	43739.38
907.901	43489.38
908.137	43178.38
908.374	43039.38
908.61	42879.38
908.846	42568.38
909.083	42321.38
909.319	42025.38
909.555	41726.38
909.791	41370.38
910.027	41062.38
910.263	40700.38
910.499	40429.38
910.735	40147.38
910.971	39681.38
911.207	39466.38
911.443	39078.38
911.678	38938.38
911.914	38883.38
912.15	38639.38
912.385	38690.38
912.621	38558.38
912.857	38604.38
913.092	38368.38
913.328	38236.38
913.563	38308.38
913.798	38221.38
914.034	38038.38
914.269	37942.38
914.504	37805.38
914.739	37675.38
914.975	37475.38
915.21	37203.38
915.445	36705.38
915.68	36460.38
915.915	36164.38
916.15	35792.38
916.384	35314.38
916.619	35022.38
916.854	34713.38
917.089	34387.38
917.324	34132.38
917.558	33884.38
917.793	33687.38
918.028	33538.38
918.262	33492.38
918.497	33324.38
918.731	33447.38
918.965	33248.38
919.2	33107.38
919.434	33006.38
919.668	32950.38
919.903	32962.38
920.137	32820.38
920.371	32547.38
920.605	32320.38
920.839	32100.38
921.073	31621.38
921.307	31518.38
921.541	31318.38
921.775	31155.38
922.009	31027.38
922.243	30830.38
922.476	30823.38
922.71	30709.38
922.944	30836.38
923.177	30581.38
923.411	30504.38
923.644	30411.38
923.878	30162.38
924.111	30225.38
924.345	29926.38
924.578	29818.38
924.811	29589.38
925.045	29427.38
925.278	29284.38
925.511	29064.38
925.744	28813.38
925.977	28397.38
926.21	28278.38
926.443	28030.38
926.676	27784.38
926.909	27562.38
927.142	27450.38
927.375	27116.38
927.608	26937.38
927.841	26792.38
928.073	26602.38
928.306	26606.38
928.539	26562.38
928.771	26473.38
929.004	26445.38
929.236	26402.38
929.469	26354.38
929.701	26446.38
929.933	26439.38
930.166	26359.38
930.398	26157.38
930.63	26132.38
930.862	26038.38
931.094	25843.38
931.327	25724.38
931.559	25503.38
931.791	25350.38
932.023	25233.38
932.255	25066.38
932.486	24807.38
932.718	24673.38
932.95	24361.38
933.182	24313.38
933.413	24263.38
933.645	24023.38
933.877	23914.38
934.108	23792.38
934.34	23677.38
934.571	23648.38
934.803	23437.38
935.034	23385.38
935.265	23347.38
935.497	23243.38
935.728	23163.38
935.959	23139.38
936.19	22870.38
936.422	22755.38
936.653	22683.38
936.884	22465.38
937.115	22312.38
937.346	22096.38
937.577	21902.38
937.807	21894.38
938.038	21786.38
938.269	21802.38
938.5	21597.38
938.73	21584.38
938.961	21576.38
939.192	21625.38
939.422	21473.38
939.653	21380.38
939.883	21295.38
940.114	21222.38
940.344	21326.38
940.574	21036.38
940.805	20997.38
941.035	20783.38
941.265	20769.38
941.495	20493.38
941.726	20324.38
941.956	20215.38
942.186	20032.38
942.416	19852.38
942.646	19641.38
942.876	19422.38
943.105	19356.38
943.335	19184.38
943.565	19079.38
943.795	18930.38
944.024	18707.38
944.254	18603.38
944.484	18455.38
944.713	18444.38
944.943	18252.38
945.172	18179.38
945.402	18143.38
945.631	18132.38
945.86	18059.38
946.09	17943.38
946.319	18003.38
946.548	17896.38
946.777	17915.38
947.006	17788.38
947.235	17716.38
947.465	17641.38
947.694	17482.38
947.922	17327.38
948.151	17143.38
948.38	17100.38
948.609	17039.38
948.838	16799.38
949.067	16746.38
949.295	16628.38
949.524	16526.38
949.752	16353.38
949.981	16256.38
950.21	16275.38
950.438	16075.38
950.666	15960.38
950.895	15876.38
951.123	15605.38
951.351	15620.38
951.58	15471.38
951.808	15431.38
952.036	15349.38
952.264	15287.38
952.492	15167.38
952.72	15115.38
952.948	14996.38
953.176	14926.38
953.404	14640.38
953.632	14576.38
953.86	14560.38
954.088	14443.38
954.315	14254.38
954.543	14162.38
954.771	14087.38
954.998	14031.38
955.226	13962.38
955.453	13946.38
955.681	13853.38
955.908	13754.38
956.135	13760.38
956.363	13655.38
956.59	13666.38
956.817	13606.38
957.045	13663.38
957.272	13504.38
957.499	13515.38
957.726	13379.38
957.953	13352.38
958.18	13232.38
958.407	13270.38
958.634	13123.38
958.861	13051.38
959.087	12890.38
959.314	12768.38
959.541	12840.38
959.767	12635.38
959.994	12550.38
960.221	12373.38
960.447	12268.38
960.674	12251.38
960.9	12107.38
961.127	12033.38
961.353	11952.38
961.579	11928.38
961.806	11789.38
962.032	11740.38
962.258	11611.38
962.484	11553.38
962.71	11489.38
962.936	11499.38
963.162	11394.38
963.388	11500.38
963.614	11332.38
963.84	11287.38
964.066	11351.38
964.292	11201.38
964.518	11291.38
964.743	11119.38
964.969	11123.38
965.195	11077.38
965.42	11038.38
965.646	10969.38
965.871	10852.38
966.097	10747.38
966.322	10715.38
966.547	10624.38
966.773	10574.38
966.998	10501.38
967.223	10462.38
967.448	10440.38
967.674	10361.38
967.899	10335.38
968.124	10280.38
968.349	10237.38
968.574	10097.38
968.799	10025.38
969.024	9981.38
969.248	9920.38
969.473	9904.38
969.698	9800.38
969.923	9737.38
970.147	9702.38
970.372	9597.38
970.596	9546.38
970.821	9485.38
971.046	9439.38
971.27	9348.38
971.494	9304.38
971.719	9286.38
971.943	9154.38
972.167	9107.38
972.392	9091.38
972.616	8972.38
972.84	8979.38
973.064	8909.38
973.288	8840.38
973.512	8764.38
973.736	8790.38
973.96	8733.38
974.184	8737.38
974.408	8631.38
974.631	8601.38
974.855	8630.38
975.079	8564.38
975.303	8582.38
975.526	8477.38
975.75	8414.38
975.973	8294.38
976.197	8352.38
976.42	8396.38
976.644	8335.38
976.867	8190.38
977.09	8130.38
977.313	8107.38
977.537	8013.38
977.76	7957.38
977.983	7897.38
978.206	7819.38
978.429	7733.38
978.652	7775.38
978.875	7715.38
979.098	7571.38
979.321	7565.38
979.544	7473.38
979.767	7464.38
979.989	7466.38
980.212	7304.38
980.435	7332.38
980.657	7226.38
980.88	7207.38
981.102	7197.38
981.325	7146.38
981.547	7051.38
981.77	7070.38
981.992	7026.38
982.214	7009.38
982.437	6939.38
982.659	6937.38
982.881	6925.38
983.103	6867.38
983.325	6758.38
983.547	6840.38
983.769	6764.38
983.991	6729.38
984.213	6667.38
984.435	6651.38
984.657	6640.38
984.879	6564.38
985.1	6523.38
985.322	6425.38
985.544	6438.38
985.765	6438.38
985.987	6370.38
986.208	6320.38
986.43	6314.38
986.651	6248.38
986.873	6228.38
987.094	6176.38
987.315	6131.38
987.536	6097.38
987.758	6105.38
987.979	5995.38
988.2	5967.38
988.421	5880.38
988.642	5835.38
988.863	5849.38
989.084	5800.38
989.305	5738.38
989.526	5718.38
989.747	5714.38
989.967	5594.38
990.188	5599.38
990.409	5576.38
990.629	5544.38
990.85	5511.38
991.071	5432.38
991.291	5435.38
991.512	5399.38
991.732	5387.38
991.952	5376.38
992.173	5287.38
992.393	5233.38
992.613	5243.38
992.834	5232.38
993.054	5226.38
993.274	5169.38
993.494	5110.38
993.714	5163.38
993.934	5121.38
994.154	5093.38
994.374	5084.38
994.594	5017.38
994.813	5023.38
995.033	4957.38
995.253	4948.38
995.473	4983.38
995.692	4870.38
995.912	4896.38
996.131	4797.38
996.351	4778.38
996.57	4748.38
996.79	4751.38
997.009	4660.38
997.228	4627.38
997.448	4509.38
997.667	4499.38
997.886	4478.38
998.105	4393.38
998.325	4402.38
998.544	4365.38
998.763	4379.38
998.982	4347.38
999.201	4346.38
999.419	4248.38
999.638	4225.38
999.857	4192.38
1000.076	4231.38
1000.295	4164.38
1000.513	4149.38
1000.732	4126.38
1000.95	4083.38
1001.169	4060.38
1001.388	4022.38
1001.606	4040.38
1001.824	4016.38
1002.043	4005.38
1002.261	3981.38
1002.479	4008.38
1002.698	3959.38
1002.916	3919.38
1003.134	3907.38
1003.352	3873.38
1003.57	3848.38
1003.788	3827.38
1004.006	3773.38
1004.224	3764.38
1004.442	3745.38
1004.66	3700.38
1004.878	3692.38
1005.095	3688.38
1005.313	3633.38
1005.531	3651.38
1005.748	3579.38
1005.966	3657.38
1006.184	3608.38
1006.401	3576.38
1006.618	3542.38
1006.836	3491.38
1007.053	3524.38
1007.271	3504.38
1007.488	3489.38
1007.705	3457.38
1007.922	3443.38
1008.139	3406.38
1008.357	3447.38
1008.574	3392.38
1008.791	3427.38
1009.008	3446.38
1009.225	3403.38
1009.441	3415.38
1009.658	3381.38
1009.875	3376.38
1010.092	3345.38
1010.309	3323.38
1010.525	3287.38
1010.742	3259.38
1010.958	3264.38
1011.175	3231.38
1011.391	3157.38
1011.608	3145.38
1011.824	3149.38
1012.041	3072.38
1012.257	3087.38
1012.473	3063.38
1012.689	2984.38
1012.906	2992.38
1013.122	3011.38
1013.338	2980.38
1013.554	3008.38
1013.77	2978.38
1013.986	2972.38
1014.202	2987.38
1014.418	3004.38
1014.634	3029.38
1014.849	3028.38
1015.065	3031.38
1015.281	3045.38
1015.496	3049.38
1015.712	2998.38
1015.928	2994.38
1016.143	2927.38
1016.359	2888.38
1016.574	2808.38
1016.79	2804.38
1017.005	2766.38
1017.22	2690.38
1017.435	2680.38
1017.651	2620.38
1017.866	2564.38
1018.081	2532.38
1018.296	2466.38
1018.511	2503.38
1018.726	2459.38
1018.941	2384.38
1019.156	2403.38
1019.371	2414.38
1019.586	2406.38
1019.801	2374.38
1020.015	2319.38
1020.23	2350.38
1020.445	2324.38
1020.659	2282.38
1020.874	2221.38
1021.088	2219.38
1021.303	2207.38
1021.517	2164.38
1021.732	2179.38
1021.946	2145.38
1022.16	2116.38
1022.375	2065.38
1022.589	2084.38
1022.803	2048.38
1023.017	1998.38
1023.231	1937.38
1023.445	1924.38
1023.659	1915.38
1023.873	1851.38
1024.087	1821.38
1024.301	1787.38
1024.515	1787.38
1024.729	1747.38
1024.942	1682.38
1025.156	1670.38
1025.37	1619.38
1025.583	1633.38
1025.797	1596.38
1026.01	1572.38
1026.224	1495.38
1026.437	1507.38
1026.651	1443.38
1026.864	1398.38
1027.077	1370.38
1027.291	1322.38
1027.504	1314.38
1027.717	1272.38
1027.93	1232.38
1028.143	1204.38
1028.356	1150.38
1028.569	1071.38
1028.782	1042.38
1028.995	-2.62
1029.208	-0.62
1029.421	-4.62
1029.634	-2.62
