Data from QEP037381__188__15-13-49-040.txt Node

Date: Mon Mar 14 15:13:49 EDT 2022
User: dcclab
Spectrometer: QEP03738
Trigger mode: 4
Integration Time (sec): 1.500000E0
Scans to average: 1
Electric dark correction enabled: true
Nonlinearity correction enabled: false
Boxcar width: 0
XAxis mode: Wavelengths
Number of Pixels in Spectrum: 1044
>>>>>Begin Spectral Data<<<<<
783.959	8.88
784.218	2.88
784.476	-0.12
784.734	-3.12
784.992	285.88
785.251	278.88
785.509	283.88
785.767	279.88
786.025	285.88
786.283	296.88
786.541	307.88
786.798	309.88
787.056	308.88
787.314	305.88
787.572	319.88
787.83	320.88
788.087	318.88
788.345	319.88
788.602	323.88
788.86	318.88
789.117	335.88
789.375	329.88
789.632	334.88
789.89	335.88
790.147	363.88
790.404	361.88
790.661	357.88
790.919	377.88
791.176	386.88
791.433	400.88
791.69	419.88
791.947	417.88
792.204	418.88
792.461	436.88
792.718	445.88
792.974	484.88
793.231	481.88
793.488	522.88
793.745	539.88
794.001	545.88
794.258	567.88
794.514	610.88
794.771	648.88
795.027	687.88
795.284	721.88
795.54	788.88
795.797	842.88
796.053	899.88
796.309	989.88
796.565	1115.88
796.822	1248.88
797.078	1418.88
797.334	1646.88
797.59	2023.88
797.846	2506.88
798.102	3351.88
798.358	4553.88
798.614	6491.88
798.869	9579.88
799.125	14153.88
799.381	20725.88
799.637	29641.88
799.892	40231.88
800.148	52031.88
800.403	63545.88
800.659	73356.88
800.914	80978.88
801.17	86285.88
801.425	89603.88
801.68	91916.88
801.936	93789.88
802.191	95911.88
802.446	98013.88
802.701	99893.88
802.957	101755.88
803.212	103860.88
803.467	105541.88
803.722	107533.88
803.977	109267.88
804.232	110956.88
804.486	113131.88
804.741	114990.88
804.996	116789.88
805.251	118908.88
805.505	120723.88
805.76	122706.88
806.015	123862.88
806.269	125310.88
806.524	126674.88
806.778	127502.88
807.033	128413.88
807.287	129413.88
807.541	131080.88
807.796	132584.88
808.05	133721.88
808.304	134679.88
808.558	135509.88
808.812	135819.88
809.066	137165.88
809.32	137835.88
809.574	138350.88
809.828	139150.88
810.082	139985.88
810.336	140548.88
810.59	142144.88
810.844	143238.88
811.097	144748.88
811.351	146852.88
811.605	148783.88
811.858	150956.88
812.112	152642.88
812.365	155289.88
812.619	157355.88
812.872	159099.88
813.126	160806.88
813.379	162466.88
813.632	164301.88
813.885	166021.88
814.139	167884.88
814.392	169977.88
814.645	172296.88
814.898	175447.88
815.151	177634.88
815.404	180473.88
815.657	182633.88
815.91	184777.88
816.163	186568.88
816.416	187963.88
816.668	188830.88
816.921	189406.88
817.174	189748.88
817.426	189768.88
817.679	189565.88
817.931	188788.88
818.184	188537.88
818.436	188509.88
818.689	188282.88
818.941	188299.88
819.194	188458.88
819.446	188862.88
819.698	189226.88
819.95	189586.88
820.202	189927.88
820.455	190209.88
820.707	190627.88
820.959	190422.88
821.211	190111.88
821.462	189773.88
821.714	189209.88
821.966	188764.88
822.218	187458.88
822.47	186777.88
822.722	186048.88
822.973	185138.88
823.225	184435.88
823.476	184102.88
823.728	183655.88
823.979	183839.88
824.231	183467.88
824.482	183214.88
824.734	182959.88
824.985	183045.88
825.236	182635.88
825.487	181959.88
825.739	181300.88
825.99	180224.88
826.241	179386.88
826.492	178332.88
826.743	177508.88
826.994	176770.88
827.245	175927.88
827.496	175093.88
827.747	174552.88
827.997	174623.88
828.248	174245.88
828.499	174356.88
828.75	174055.88
829	173910.88
829.251	173552.88
829.501	173295.88
829.752	172361.88
830.002	171078.88
830.253	169924.88
830.503	168657.88
830.753	167171.88
831.004	166208.88
831.254	164952.88
831.504	164829.88
831.754	164142.88
832.004	163570.88
832.254	163662.88
832.504	163625.88
832.754	163576.88
833.004	162863.88
833.254	162299.88
833.504	161630.88
833.754	160865.88
834.003	160318.88
834.253	159848.88
834.503	158481.88
834.752	157397.88
835.002	156375.88
835.252	155497.88
835.501	154478.88
835.75	153998.88
836	153556.88
836.249	153113.88
836.499	152977.88
836.748	152269.88
836.997	152017.88
837.246	152147.88
837.495	152077.88
837.744	152136.88
837.993	151967.88
838.242	151316.88
838.491	150997.88
838.74	150197.88
838.989	148762.88
839.238	147833.88
839.487	146932.88
839.736	146315.88
839.984	145183.88
840.233	144558.88
840.482	143741.88
840.73	143241.88
840.979	142510.88
841.227	141765.88
841.476	140967.88
841.724	140637.88
841.972	140334.88
842.221	139581.88
842.469	139117.88
842.717	138329.88
842.965	137817.88
843.213	137513.88
843.461	136585.88
843.71	135919.88
843.958	135405.88
844.205	134873.88
844.453	134384.88
844.701	133975.88
844.949	133708.88
845.197	133598.88
845.445	133144.88
845.692	133051.88
845.94	133323.88
846.188	132998.88
846.435	132716.88
846.683	132391.88
846.93	131664.88
847.178	130882.88
847.425	129980.88
847.672	128642.88
847.92	127627.88
848.167	126013.88
848.414	125085.88
848.661	123954.88
848.908	122990.88
849.155	122702.88
849.402	122260.88
849.649	122171.88
849.896	122256.88
850.143	122988.88
850.39	122940.88
850.637	123251.88
850.884	122572.88
851.131	122533.88
851.377	122296.88
851.624	121496.88
851.87	120823.88
852.117	120348.88
852.364	119326.88
852.61	119123.88
852.856	118039.88
853.103	117326.88
853.349	116889.88
853.595	116378.88
853.842	115738.88
854.088	115565.88
854.334	115495.88
854.58	115703.88
854.826	114781.88
855.072	114146.88
855.318	113235.88
855.564	112202.88
855.81	111181.88
856.056	110157.88
856.302	109301.88
856.548	108269.88
856.793	107650.88
857.039	107259.88
857.285	106901.88
857.53	106604.88
857.776	106622.88
858.021	106818.88
858.267	107167.88
858.512	107277.88
858.758	107435.88
859.003	107336.88
859.248	107110.88
859.493	107184.88
859.739	106733.88
859.984	106174.88
860.229	105789.88
860.474	104998.88
860.719	104266.88
860.964	103505.88
861.209	102625.88
861.454	101769.88
861.699	101326.88
861.943	100784.88
862.188	100231.88
862.433	99793.88
862.678	99279.88
862.922	99191.88
863.167	98927.88
863.411	98470.88
863.656	98136.88
863.9	98106.88
864.145	97555.88
864.389	96924.88
864.634	96225.88
864.878	95807.88
865.122	95213.88
865.366	95215.88
865.61	94847.88
865.855	94774.88
866.099	94317.88
866.343	94051.88
866.587	93475.88
866.831	93503.88
867.074	93385.88
867.318	93247.88
867.562	93184.88
867.806	93186.88
868.05	92935.88
868.293	92774.88
868.537	92303.88
868.78	91855.88
869.024	91337.88
869.267	90781.88
869.511	90093.88
869.754	89386.88
869.998	88253.88
870.241	87497.88
870.484	86830.88
870.728	86145.88
870.971	85522.88
871.214	85473.88
871.457	85203.88
871.7	85130.88
871.943	84948.88
872.186	85023.88
872.429	85256.88
872.672	85049.88
872.915	84969.88
873.158	84627.88
873.4	84707.88
873.643	84012.88
873.886	83879.88
874.128	83592.88
874.371	83410.88
874.613	83026.88
874.856	82738.88
875.098	82592.88
875.341	82264.88
875.583	81857.88
875.825	81470.88
876.068	81140.88
876.31	80329.88
876.552	79934.88
876.794	79229.88
877.036	78437.88
877.278	77862.88
877.52	77452.88
877.762	77210.88
878.004	76682.88
878.246	76416.88
878.488	76354.88
878.73	76096.88
878.972	75911.88
879.213	75996.88
879.455	75586.88
879.697	75195.88
879.938	75014.88
880.18	74863.88
880.421	74375.88
880.663	74182.88
880.904	74051.88
881.145	73772.88
881.387	73764.88
881.628	73805.88
881.869	73563.88
882.11	73373.88
882.352	73083.88
882.593	72863.88
882.834	72877.88
883.075	72594.88
883.316	72445.88
883.557	72105.88
883.797	71811.88
884.038	71049.88
884.279	70276.88
884.52	69407.88
884.761	68994.88
885.001	68569.88
885.242	67912.88
885.482	67223.88
885.723	66818.88
885.963	66662.88
886.204	66496.88
886.444	65952.88
886.685	65923.88
886.925	65320.88
887.165	65157.88
887.405	64802.88
887.646	64735.88
887.886	64394.88
888.126	64400.88
888.366	64219.88
888.606	64191.88
888.846	64234.88
889.086	64469.88
889.326	64490.88
889.565	64231.88
889.805	64060.88
890.045	64028.88
890.285	63622.88
890.524	63409.88
890.764	63085.88
891.003	62625.88
891.243	61959.88
891.482	61487.88
891.722	60938.88
891.961	60363.88
892.201	59898.88
892.44	59596.88
892.679	59588.88
892.918	59183.88
893.158	58908.88
893.397	58861.88
893.636	58482.88
893.875	58457.88
894.114	58005.88
894.353	57724.88
894.592	57657.88
894.831	57207.88
895.069	56989.88
895.308	56420.88
895.547	56168.88
895.786	55925.88
896.024	55824.88
896.263	55513.88
896.501	55263.88
896.74	55286.88
896.978	55082.88
897.217	55005.88
897.455	54780.88
897.694	54677.88
897.932	54389.88
898.17	54170.88
898.408	53884.88
898.646	53899.88
898.885	53568.88
899.123	53327.88
899.361	52726.88
899.599	52447.88
899.837	52097.88
900.075	51843.88
900.312	51645.88
900.55	50977.88
900.788	50452.88
901.026	49953.88
901.263	49747.88
901.501	49290.88
901.739	48847.88
901.976	48643.88
902.214	48324.88
902.451	48312.88
902.689	48135.88
902.926	48185.88
903.163	47895.88
903.401	47809.88
903.638	47619.88
903.875	47771.88
904.112	47700.88
904.349	47569.88
904.586	47402.88
904.823	47188.88
905.06	46932.88
905.297	46597.88
905.534	46146.88
905.771	45863.88
906.008	45352.88
906.245	45269.88
906.481	44909.88
906.718	44631.88
906.955	44622.88
907.191	44394.88
907.428	43827.88
907.664	43878.88
907.901	43530.88
908.137	43468.88
908.374	43260.88
908.61	42932.88
908.846	42938.88
909.083	42520.88
909.319	42141.88
909.555	41931.88
909.791	41518.88
910.027	41256.88
910.263	40708.88
910.499	40599.88
910.735	40212.88
910.971	39731.88
911.207	39552.88
911.443	39437.88
911.678	39131.88
911.914	38995.88
912.15	38905.88
912.385	38892.88
912.621	38851.88
912.857	38813.88
913.092	38544.88
913.328	38511.88
913.563	38397.88
913.798	38330.88
914.034	38252.88
914.269	38143.88
914.504	37947.88
914.739	37853.88
914.975	37499.88
915.21	37154.88
915.445	36940.88
915.68	36531.88
915.915	36214.88
916.15	35759.88
916.384	35435.88
916.619	35056.88
916.854	34825.88
917.089	34588.88
917.324	34347.88
917.558	34094.88
917.793	33915.88
918.028	33620.88
918.262	33505.88
918.497	33484.88
918.731	33384.88
918.965	33411.88
919.2	33369.88
919.434	33100.88
919.668	33147.88
919.903	32907.88
920.137	32757.88
920.371	32643.88
920.605	32399.88
920.839	32104.88
921.073	31889.88
921.307	31725.88
921.541	31479.88
921.775	31116.88
922.009	31072.88
922.243	30988.88
922.476	30927.88
922.71	30898.88
922.944	30852.88
923.177	30689.88
923.411	30525.88
923.644	30492.88
923.878	30341.88
924.111	30150.88
924.345	30080.88
924.578	29970.88
924.811	29789.88
925.045	29578.88
925.278	29243.88
925.511	29086.88
925.744	28915.88
925.977	28603.88
926.21	28399.88
926.443	28131.88
926.676	27770.88
926.909	27678.88
927.142	27400.88
927.375	27246.88
927.608	27013.88
927.841	26841.88
928.073	26734.88
928.306	26641.88
928.539	26603.88
928.771	26567.88
929.004	26543.88
929.236	26515.88
929.469	26517.88
929.701	26525.88
929.933	26532.88
930.166	26487.88
930.398	26374.88
930.63	26192.88
930.862	26115.88
931.094	25983.88
931.327	25854.88
931.559	25572.88
931.791	25531.88
932.023	25194.88
932.255	25068.88
932.486	24923.88
932.718	24690.88
932.95	24567.88
933.182	24388.88
933.413	24245.88
933.645	24092.88
933.877	24046.88
934.108	23908.88
934.34	23822.88
934.571	23726.88
934.803	23609.88
935.034	23401.88
935.265	23308.88
935.497	23199.88
935.728	23170.88
935.959	23025.88
936.19	22949.88
936.422	22820.88
936.653	22682.88
936.884	22535.88
937.115	22353.88
937.346	22196.88
937.577	22009.88
937.807	21951.88
938.038	21907.88
938.269	21797.88
938.5	21685.88
938.73	21636.88
938.961	21639.88
939.192	21479.88
939.422	21449.88
939.653	21502.88
939.883	21340.88
940.114	21329.88
940.344	21274.88
940.574	21221.88
940.805	21127.88
941.035	20986.88
941.265	20707.88
941.495	20633.88
941.726	20515.88
941.956	20209.88
942.186	20168.88
942.416	19959.88
942.646	19837.88
942.876	19556.88
943.105	19469.88
943.335	19191.88
943.565	19180.88
943.795	18912.88
944.024	18736.88
944.254	18678.88
944.484	18621.88
944.713	18532.88
944.943	18426.88
945.172	18238.88
945.402	18264.88
945.631	18244.88
945.86	18118.88
946.09	18100.88
946.319	18104.88
946.548	18033.88
946.777	17897.88
947.006	17864.88
947.235	17818.88
947.465	17704.88
947.694	17614.88
947.922	17464.88
948.151	17323.88
948.38	17200.88
948.609	16995.88
948.838	16873.88
949.067	16791.88
949.295	16816.88
949.524	16586.88
949.752	16471.88
949.981	16263.88
950.21	16186.88
950.438	16128.88
950.666	16064.88
950.895	15914.88
951.123	15861.88
951.351	15731.88
951.58	15514.88
951.808	15490.88
952.036	15441.88
952.264	15293.88
952.492	15245.88
952.72	15103.88
952.948	15085.88
953.176	14970.88
953.404	14820.88
953.632	14605.88
953.86	14461.88
954.088	14443.88
954.315	14386.88
954.543	14130.88
954.771	14198.88
954.998	14055.88
955.226	14062.88
955.453	14025.88
955.681	13878.88
955.908	13826.88
956.135	13811.88
956.363	13751.88
956.59	13742.88
956.817	13703.88
957.045	13691.88
957.272	13578.88
957.499	13547.88
957.726	13512.88
957.953	13443.88
958.18	13326.88
958.407	13199.88
958.634	13155.88
958.861	13040.88
959.087	12978.88
959.314	12880.88
959.541	12826.88
959.767	12655.88
959.994	12475.88
960.221	12476.88
960.447	12305.88
960.674	12306.88
960.9	12164.88
961.127	12166.88
961.353	11970.88
961.579	11929.88
961.806	11847.88
962.032	11691.88
962.258	11608.88
962.484	11605.88
962.71	11577.88
962.936	11492.88
963.162	11490.88
963.388	11483.88
963.614	11386.88
963.84	11379.88
964.066	11378.88
964.292	11345.88
964.518	11253.88
964.743	11263.88
964.969	11189.88
965.195	11073.88
965.42	10970.88
965.646	10991.88
965.871	10873.88
966.097	10851.88
966.322	10761.88
966.547	10804.88
966.773	10646.88
966.998	10516.88
967.223	10541.88
967.448	10482.88
967.674	10395.88
967.899	10333.88
968.124	10254.88
968.349	10222.88
968.574	10137.88
968.799	10053.88
969.024	9987.88
969.248	9973.88
969.473	9938.88
969.698	9830.88
969.923	9770.88
970.147	9705.88
970.372	9653.88
970.596	9585.88
970.821	9491.88
971.046	9431.88
971.27	9388.88
971.494	9305.88
971.719	9276.88
971.943	9212.88
972.167	9167.88
972.392	9073.88
972.616	9009.88
972.84	8974.88
973.064	8948.88
973.288	8874.88
973.512	8871.88
973.736	8872.88
973.96	8781.88
974.184	8743.88
974.408	8655.88
974.631	8637.88
974.855	8685.88
975.079	8631.88
975.303	8476.88
975.526	8543.88
975.75	8442.88
975.973	8470.88
976.197	8376.88
976.42	8327.88
976.644	8250.88
976.867	8203.88
977.09	8147.88
977.313	8156.88
977.537	8037.88
977.76	7989.88
977.983	7867.88
978.206	7866.88
978.429	7813.88
978.652	7742.88
978.875	7693.88
979.098	7640.88
979.321	7605.88
979.544	7512.88
979.767	7498.88
979.989	7412.88
980.212	7360.88
980.435	7337.88
980.657	7282.88
980.88	7204.88
981.102	7198.88
981.325	7132.88
981.547	7095.88
981.77	7055.88
981.992	7071.88
982.214	6983.88
982.437	6943.88
982.659	6856.88
982.881	6939.88
983.103	6904.88
983.325	6846.88
983.547	6817.88
983.769	6766.88
983.991	6719.88
984.213	6686.88
984.435	6709.88
984.657	6672.88
984.879	6608.88
985.1	6481.88
985.322	6553.88
985.544	6414.88
985.765	6456.88
985.987	6421.88
986.208	6362.88
986.43	6312.88
986.651	6320.88
986.873	6295.88
987.094	6170.88
987.315	6143.88
987.536	6123.88
987.758	6102.88
987.979	6012.88
988.2	5995.88
988.421	6020.88
988.642	5908.88
988.863	5864.88
989.084	5856.88
989.305	5830.88
989.526	5753.88
989.747	5721.88
989.967	5677.88
990.188	5609.88
990.409	5581.88
990.629	5570.88
990.85	5511.88
991.071	5395.88
991.291	5383.88
991.512	5386.88
991.732	5364.88
991.952	5351.88
992.173	5271.88
992.393	5310.88
992.613	5255.88
992.834	5217.88
993.054	5217.88
993.274	5181.88
993.494	5175.88
993.714	5141.88
993.934	5089.88
994.154	5104.88
994.374	5069.88
994.594	5041.88
994.813	5046.88
995.033	5019.88
995.253	5003.88
995.473	4913.88
995.692	4896.88
995.912	4850.88
996.131	4838.88
996.351	4791.88
996.57	4784.88
996.79	4747.88
997.009	4633.88
997.228	4644.88
997.448	4566.88
997.667	4544.88
997.886	4453.88
998.105	4439.88
998.325	4444.88
998.544	4387.88
998.763	4347.88
998.982	4306.88
999.201	4262.88
999.419	4258.88
999.638	4224.88
999.857	4231.88
1000.076	4192.88
1000.295	4167.88
1000.513	4156.88
1000.732	4097.88
1000.95	4097.88
1001.169	4107.88
1001.388	4046.88
1001.606	4049.88
1001.824	4030.88
1002.043	4009.88
1002.261	4014.88
1002.479	3958.88
1002.698	3966.88
1002.916	3932.88
1003.134	3908.88
1003.352	3819.88
1003.57	3847.88
1003.788	3840.88
1004.006	3785.88
1004.224	3787.88
1004.442	3744.88
1004.66	3747.88
1004.878	3728.88
1005.095	3703.88
1005.313	3700.88
1005.531	3659.88
1005.748	3635.88
1005.966	3683.88
1006.184	3590.88
1006.401	3614.88
1006.618	3563.88
1006.836	3527.88
1007.053	3514.88
1007.271	3526.88
1007.488	3486.88
1007.705	3493.88
1007.922	3467.88
1008.139	3420.88
1008.357	3461.88
1008.574	3404.88
1008.791	3428.88
1009.008	3469.88
1009.225	3387.88
1009.441	3379.88
1009.658	3397.88
1009.875	3415.88
1010.092	3398.88
1010.309	3336.88
1010.525	3313.88
1010.742	3267.88
1010.958	3228.88
1011.175	3226.88
1011.391	3251.88
1011.608	3159.88
1011.824	3141.88
1012.041	3110.88
1012.257	3123.88
1012.473	3075.88
1012.689	3006.88
1012.906	3059.88
1013.122	3007.88
1013.338	2994.88
1013.554	2982.88
1013.77	3003.88
1013.986	2998.88
1014.202	2980.88
1014.418	3002.88
1014.634	3066.88
1014.849	3059.88
1015.065	3051.88
1015.281	3065.88
1015.496	3039.88
1015.712	2996.88
1015.928	2972.88
1016.143	2934.88
1016.359	2903.88
1016.574	2849.88
1016.79	2782.88
1017.005	2790.88
1017.22	2707.88
1017.435	2690.88
1017.651	2630.88
1017.866	2557.88
1018.081	2570.88
1018.296	2483.88
1018.511	2460.88
1018.726	2488.88
1018.941	2427.88
1019.156	2400.88
1019.371	2385.88
1019.586	2406.88
1019.801	2378.88
1020.015	2350.88
1020.23	2347.88
1020.445	2300.88
1020.659	2284.88
1020.874	2262.88
1021.088	2215.88
1021.303	2217.88
1021.517	2158.88
1021.732	2148.88
1021.946	2186.88
1022.16	2093.88
1022.375	2085.88
1022.589	2065.88
1022.803	2060.88
1023.017	2000.88
1023.231	1974.88
1023.445	1954.88
1023.659	1901.88
1023.873	1880.88
1024.087	1821.88
1024.301	1800.88
1024.515	1747.88
1024.729	1727.88
1024.942	1717.88
1025.156	1692.88
1025.37	1646.88
1025.583	1616.88
1025.797	1573.88
1026.01	1558.88
1026.224	1511.88
1026.437	1464.88
1026.651	1462.88
1026.864	1388.88
1027.077	1390.88
1027.291	1327.88
1027.504	1335.88
1027.717	1263.88
1027.93	1228.88
1028.143	1176.88
1028.356	1150.88
1028.569	1095.88
1028.782	1038.88
1028.995	1.88
1029.208	-5.12
1029.421	-5.12
1029.634	-0.12
