Data from QEP037381__228__15-19-51-545.txt Node

Date: Mon Mar 14 15:19:51 EDT 2022
User: dcclab
Spectrometer: QEP03738
Trigger mode: 4
Integration Time (sec): 2.500000E0
Scans to average: 1
Electric dark correction enabled: true
Nonlinearity correction enabled: false
Boxcar width: 0
XAxis mode: Wavelengths
Number of Pixels in Spectrum: 1044
>>>>>Begin Spectral Data<<<<<
783.959	11.62
784.218	0.62
784.476	-4.38
784.734	0.62
784.992	294.62
785.251	293.62
785.509	281.62
785.767	276.62
786.025	273.62
786.283	291.62
786.541	279.62
786.798	297.62
787.056	288.62
787.314	267.62
787.572	281.62
787.83	278.62
788.087	295.62
788.345	295.62
788.602	292.62
788.86	297.62
789.117	303.62
789.375	287.62
789.632	302.62
789.89	295.62
790.147	316.62
790.404	325.62
790.661	312.62
790.919	338.62
791.176	327.62
791.433	340.62
791.69	355.62
791.947	364.62
792.204	336.62
792.461	373.62
792.718	364.62
792.974	397.62
793.231	394.62
793.488	434.62
793.745	422.62
794.001	451.62
794.258	466.62
794.514	471.62
794.771	513.62
795.027	514.62
795.284	542.62
795.54	602.62
795.797	636.62
796.053	696.62
796.309	733.62
796.565	814.62
796.822	879.62
797.078	1022.62
797.334	1177.62
797.59	1387.62
797.846	1756.62
798.102	2286.62
798.358	3130.62
798.614	4376.62
798.869	6386.62
799.125	9428.62
799.381	13836.62
799.637	19732.62
799.892	26794.62
800.148	34488.62
800.403	42120.62
800.659	48583.62
800.914	53623.62
801.17	56954.62
801.425	59302.62
801.68	61017.62
801.936	62534.62
802.191	63740.62
802.446	65109.62
802.701	66550.62
802.957	67870.62
803.212	69285.62
803.467	70642.62
803.722	72015.62
803.977	73563.62
804.232	74806.62
804.486	76185.62
804.741	77721.62
804.996	79044.62
805.251	80464.62
805.505	81762.62
805.76	83125.62
806.015	84206.62
806.269	85411.62
806.524	86336.62
806.778	87243.62
807.033	88046.62
807.287	89033.62
807.541	90158.62
807.796	91505.62
808.05	92593.62
808.304	93289.62
808.558	93855.62
808.812	94292.62
809.066	94881.62
809.32	95697.62
809.574	96394.62
809.828	96928.62
810.082	97533.62
810.336	98639.62
810.59	99479.62
810.844	100525.62
811.097	101795.62
811.351	103307.62
811.605	104734.62
811.858	106574.62
812.112	108181.62
812.365	110098.62
812.619	111833.62
812.872	113223.62
813.126	114640.62
813.379	116220.62
813.632	117886.62
813.885	119120.62
814.139	121057.62
814.392	123001.62
814.645	124857.62
814.898	126658.62
815.151	128978.62
815.404	131254.62
815.657	133495.62
815.91	135308.62
816.163	136969.62
816.416	138386.62
816.668	139216.62
816.921	139859.62
817.174	140464.62
817.426	140683.62
817.679	140744.62
817.931	140606.62
818.184	140464.62
818.436	140425.62
818.689	140549.62
818.941	140733.62
819.194	141348.62
819.446	141985.62
819.698	142464.62
819.95	143311.62
820.202	143733.62
820.455	144197.62
820.707	144388.62
820.959	144575.62
821.211	144545.62
821.462	144393.62
821.714	143759.62
821.966	143230.62
822.218	142771.62
822.47	141862.62
822.722	141402.62
822.973	140858.62
823.225	140660.62
823.476	140228.62
823.728	140305.62
823.979	140386.62
824.231	140476.62
824.482	140327.62
824.734	140690.62
824.985	140421.62
825.236	140306.62
825.487	139743.62
825.739	139619.62
825.99	138950.62
826.241	138277.62
826.492	137989.62
826.743	137163.62
826.994	136362.62
827.245	135765.62
827.496	135532.62
827.747	135559.62
827.997	135572.62
828.248	135205.62
828.499	135536.62
828.75	135417.62
829	135526.62
829.251	135665.62
829.501	135126.62
829.752	134620.62
830.002	133829.62
830.253	132966.62
830.503	132431.62
830.753	131650.62
831.004	130719.62
831.254	130199.62
831.504	129936.62
831.754	129580.62
832.004	129417.62
832.254	129508.62
832.504	129907.62
832.754	129732.62
833.004	129636.62
833.254	129203.62
833.504	128973.62
833.754	128444.62
834.003	128120.62
834.253	127634.62
834.503	126897.62
834.752	125843.62
835.002	125016.62
835.252	124845.62
835.501	124199.62
835.75	123821.62
836	123486.62
836.249	123441.62
836.499	123344.62
836.748	123380.62
836.997	123452.62
837.246	123158.62
837.495	123779.62
837.744	124217.62
837.993	124301.62
838.242	124732.62
838.491	124387.62
838.74	123131.62
838.989	121652.62
839.238	121067.62
839.487	120382.62
839.736	119845.62
839.984	118898.62
840.233	118263.62
840.482	117775.62
840.73	117247.62
840.979	117084.62
841.227	116618.62
841.476	116408.62
841.724	115770.62
841.972	115374.62
842.221	115195.62
842.469	115038.62
842.717	114233.62
842.965	113973.62
843.213	113448.62
843.461	113387.62
843.71	112489.62
843.958	112299.62
844.205	112064.62
844.453	111985.62
844.701	111418.62
844.949	111327.62
845.197	111360.62
845.445	111285.62
845.692	111609.62
845.94	111702.62
846.188	111597.62
846.435	111157.62
846.683	110926.62
846.93	110437.62
847.178	109857.62
847.425	109061.62
847.672	108309.62
847.92	107296.62
848.167	106270.62
848.414	105275.62
848.661	104874.62
848.908	104151.62
849.155	104004.62
849.402	103706.62
849.649	103675.62
849.896	104306.62
850.143	104483.62
850.39	104992.62
850.637	104829.62
850.884	104861.62
851.131	104574.62
851.377	104341.62
851.624	104142.62
851.87	103567.62
852.117	103219.62
852.364	102541.62
852.61	102123.62
852.856	101770.62
853.103	101210.62
853.349	100621.62
853.595	100619.62
853.842	99644.62
854.088	99450.62
854.334	99718.62
854.58	99728.62
854.826	98930.62
855.072	98510.62
855.318	97702.62
855.564	96720.62
855.81	95720.62
856.056	95010.62
856.302	94436.62
856.548	93941.62
856.793	93465.62
857.039	92779.62
857.285	92513.62
857.53	92270.62
857.776	92495.62
858.021	92749.62
858.267	93068.62
858.512	93283.62
858.758	93352.62
859.003	93530.62
859.248	93515.62
859.493	93344.62
859.739	92764.62
859.984	92757.62
860.229	92222.62
860.474	91606.62
860.719	91199.62
860.964	90618.62
861.209	89978.62
861.454	89465.62
861.699	88655.62
861.943	88058.62
862.188	87879.62
862.433	87583.62
862.678	87154.62
862.922	86980.62
863.167	86886.62
863.411	86901.62
863.656	86443.62
863.9	86321.62
864.145	85988.62
864.389	85242.62
864.634	85157.62
864.878	84910.62
865.122	84483.62
865.366	84487.62
865.61	83898.62
865.855	83782.62
866.099	83711.62
866.343	83541.62
866.587	83337.62
866.831	83068.62
867.074	83126.62
867.318	83127.62
867.562	83055.62
867.806	83104.62
868.05	82798.62
868.293	82658.62
868.537	82236.62
868.78	82063.62
869.024	81539.62
869.267	80952.62
869.511	80600.62
869.754	79796.62
869.998	79099.62
870.241	78045.62
870.484	77748.62
870.728	77104.62
870.971	76589.62
871.214	76518.62
871.457	76328.62
871.7	76184.62
871.943	76468.62
872.186	76475.62
872.429	76266.62
872.672	76460.62
872.915	76268.62
873.158	76000.62
873.4	75793.62
873.643	75600.62
873.886	75617.62
874.128	75247.62
874.371	75090.62
874.613	74755.62
874.856	74624.62
875.098	74169.62
875.341	73963.62
875.583	73834.62
875.825	73599.62
876.068	73274.62
876.31	72671.62
876.552	72118.62
876.794	71514.62
877.036	70844.62
877.278	70438.62
877.52	70023.62
877.762	69498.62
878.004	69290.62
878.246	69249.62
878.488	69296.62
878.73	69041.62
878.972	68712.62
879.213	68770.62
879.455	68860.62
879.697	68625.62
879.938	68486.62
880.18	68064.62
880.421	68025.62
880.663	67629.62
880.904	67875.62
881.145	68034.62
881.387	67813.62
881.628	67612.62
881.869	67382.62
882.11	67313.62
882.352	66805.62
882.593	66707.62
882.834	66739.62
883.075	66414.62
883.316	66182.62
883.557	65899.62
883.797	65602.62
884.038	65053.62
884.279	64435.62
884.52	63572.62
884.761	63003.62
885.001	62451.62
885.242	61912.62
885.482	61749.62
885.723	61190.62
885.963	60940.62
886.204	60957.62
886.444	60544.62
886.685	60307.62
886.925	59953.62
887.165	59931.62
887.405	59416.62
887.646	59310.62
887.886	59056.62
888.126	58991.62
888.366	58844.62
888.606	58838.62
888.846	59144.62
889.086	59222.62
889.326	59054.62
889.565	59095.62
889.805	58926.62
890.045	58817.62
890.285	58560.62
890.524	58536.62
890.764	58289.62
891.003	58012.62
891.243	57264.62
891.482	56651.62
891.722	56363.62
891.961	55986.62
892.201	55509.62
892.44	54996.62
892.679	54925.62
892.918	54563.62
893.158	54347.62
893.397	54248.62
893.636	54134.62
893.875	54002.62
894.114	53738.62
894.353	53471.62
894.592	53387.62
894.831	53113.62
895.069	52735.62
895.308	52380.62
895.547	51956.62
895.786	51684.62
896.024	51806.62
896.263	51447.62
896.501	51601.62
896.74	51377.62
896.978	51250.62
897.217	51152.62
897.455	50920.62
897.694	50916.62
897.932	50702.62
898.17	50381.62
898.408	50362.62
898.646	49995.62
898.885	49829.62
899.123	49550.62
899.361	49213.62
899.599	48740.62
899.837	48663.62
900.075	48389.62
900.312	47890.62
900.55	47465.62
900.788	47004.62
901.026	46777.62
901.263	46344.62
901.501	46144.62
901.739	45744.62
901.976	45330.62
902.214	45199.62
902.451	45002.62
902.689	45269.62
902.926	44933.62
903.163	44844.62
903.401	45065.62
903.638	44953.62
903.875	44769.62
904.112	44862.62
904.349	44637.62
904.586	44479.62
904.823	44371.62
905.06	44071.62
905.297	43693.62
905.534	43488.62
905.771	43183.62
906.008	42805.62
906.245	42482.62
906.481	42318.62
906.718	41918.62
906.955	41870.62
907.191	41668.62
907.428	41651.62
907.664	41334.62
907.901	41189.62
908.137	41051.62
908.374	40904.62
908.61	40672.62
908.846	40571.62
909.083	40386.62
909.319	39976.62
909.555	39703.62
909.791	39511.62
910.027	39077.62
910.263	38773.62
910.499	38553.62
910.735	38393.62
910.971	37948.62
911.207	37650.62
911.443	37471.62
911.678	37309.62
911.914	37102.62
912.15	37045.62
912.385	37013.62
912.621	36811.62
912.857	36972.62
913.092	36823.62
913.328	36684.62
913.563	36619.62
913.798	36685.62
914.034	36585.62
914.269	36387.62
914.504	36377.62
914.739	36241.62
914.975	35953.62
915.21	35747.62
915.445	35605.62
915.68	35112.62
915.915	34939.62
916.15	34478.62
916.384	34106.62
916.619	33638.62
916.854	33459.62
917.089	33255.62
917.324	33012.62
917.558	32793.62
917.793	32567.62
918.028	32389.62
918.262	32377.62
918.497	32325.62
918.731	32366.62
918.965	32363.62
919.2	32041.62
919.434	31965.62
919.668	31997.62
919.903	31805.62
920.137	31797.62
920.371	31474.62
920.605	31300.62
920.839	31203.62
921.073	30815.62
921.307	30552.62
921.541	30430.62
921.775	30126.62
922.009	30031.62
922.243	30005.62
922.476	29923.62
922.71	29847.62
922.944	29843.62
923.177	29891.62
923.411	29693.62
923.644	29514.62
923.878	29500.62
924.111	29412.62
924.345	29372.62
924.578	29168.62
924.811	29068.62
925.045	28725.62
925.278	28509.62
925.511	28426.62
925.744	28124.62
925.977	27773.62
926.21	27634.62
926.443	27364.62
926.676	27095.62
926.909	26973.62
927.142	26776.62
927.375	26488.62
927.608	26386.62
927.841	26246.62
928.073	26123.62
928.306	26173.62
928.539	26036.62
928.771	25966.62
929.004	25965.62
929.236	25906.62
929.469	25938.62
929.701	25894.62
929.933	25899.62
930.166	25784.62
930.398	25796.62
930.63	25699.62
930.862	25605.62
931.094	25473.62
931.327	25354.62
931.559	25145.62
931.791	24908.62
932.023	24814.62
932.255	24604.62
932.486	24366.62
932.718	24078.62
932.95	24022.62
933.182	23811.62
933.413	23786.62
933.645	23700.62
933.877	23704.62
934.108	23456.62
934.34	23303.62
934.571	23223.62
934.803	23109.62
935.034	22947.62
935.265	22896.62
935.497	22787.62
935.728	22700.62
935.959	22672.62
936.19	22546.62
936.422	22363.62
936.653	22201.62
936.884	22256.62
937.115	21922.62
937.346	21692.62
937.577	21587.62
937.807	21485.62
938.038	21467.62
938.269	21354.62
938.5	21282.62
938.73	21197.62
938.961	21120.62
939.192	21134.62
939.422	20959.62
939.653	20920.62
939.883	20967.62
940.114	20863.62
940.344	20787.62
940.574	20674.62
940.805	20642.62
941.035	20373.62
941.265	20208.62
941.495	20075.62
941.726	19912.62
941.956	19849.62
942.186	19715.62
942.416	19551.62
942.646	19235.62
942.876	19217.62
943.105	18993.62
943.335	18866.62
943.565	18676.62
943.795	18466.62
944.024	18332.62
944.254	18239.62
944.484	18113.62
944.713	17921.62
944.943	17870.62
945.172	17744.62
945.402	17674.62
945.631	17661.62
945.86	17632.62
946.09	17609.62
946.319	17437.62
946.548	17455.62
946.777	17415.62
947.006	17303.62
947.235	17178.62
947.465	17210.62
947.694	16978.62
947.922	16906.62
948.151	16677.62
948.38	16603.62
948.609	16433.62
948.838	16263.62
949.067	16187.62
949.295	16099.62
949.524	16012.62
949.752	15850.62
949.981	15748.62
950.21	15677.62
950.438	15406.62
950.666	15377.62
950.895	15327.62
951.123	15146.62
951.351	15058.62
951.58	14997.62
951.808	14888.62
952.036	14777.62
952.264	14728.62
952.492	14627.62
952.72	14520.62
952.948	14442.62
953.176	14367.62
953.404	14268.62
953.632	14098.62
953.86	14007.62
954.088	13786.62
954.315	13722.62
954.543	13647.62
954.771	13532.62
954.998	13467.62
955.226	13405.62
955.453	13431.62
955.681	13285.62
955.908	13284.62
956.135	13230.62
956.363	13216.62
956.59	13180.62
956.817	13181.62
957.045	13028.62
957.272	13041.62
957.499	12960.62
957.726	12919.62
957.953	12778.62
958.18	12789.62
958.407	12669.62
958.634	12660.62
958.861	12418.62
959.087	12428.62
959.314	12274.62
959.541	12248.62
959.767	12206.62
959.994	11975.62
960.221	12016.62
960.447	11828.62
960.674	11778.62
960.9	11670.62
961.127	11535.62
961.353	11463.62
961.579	11444.62
961.806	11324.62
962.032	11256.62
962.258	11152.62
962.484	11180.62
962.71	11183.62
962.936	11113.62
963.162	11092.62
963.388	10981.62
963.614	11044.62
963.84	10953.62
964.066	10911.62
964.292	10909.62
964.518	10872.62
964.743	10719.62
964.969	10671.62
965.195	10615.62
965.42	10654.62
965.646	10619.62
965.871	10528.62
966.097	10426.62
966.322	10368.62
966.547	10308.62
966.773	10286.62
966.998	10279.62
967.223	10160.62
967.448	10100.62
967.674	10034.62
967.899	9999.62
968.124	9904.62
968.349	9816.62
968.574	9807.62
968.799	9739.62
969.024	9671.62
969.248	9647.62
969.473	9585.62
969.698	9529.62
969.923	9442.62
970.147	9388.62
970.372	9313.62
970.596	9241.62
970.821	9263.62
971.046	9186.62
971.27	9099.62
971.494	9011.62
971.719	8914.62
971.943	8874.62
972.167	8806.62
972.392	8842.62
972.616	8795.62
972.84	8711.62
973.064	8634.62
973.288	8644.62
973.512	8619.62
973.736	8506.62
973.96	8548.62
974.184	8494.62
974.408	8423.62
974.631	8453.62
974.855	8386.62
975.079	8388.62
975.303	8351.62
975.526	8298.62
975.75	8261.62
975.973	8191.62
976.197	8175.62
976.42	8072.62
976.644	8104.62
976.867	8008.62
977.09	7981.62
977.313	7952.62
977.537	7856.62
977.76	7754.62
977.983	7763.62
978.206	7710.62
978.429	7620.62
978.652	7600.62
978.875	7504.62
979.098	7513.62
979.321	7497.62
979.544	7410.62
979.767	7244.62
979.989	7359.62
980.212	7279.62
980.435	7224.62
980.657	7109.62
980.88	7106.62
981.102	7050.62
981.325	7046.62
981.547	6997.62
981.77	6962.62
981.992	6969.62
982.214	6926.62
982.437	6930.62
982.659	6862.62
982.881	6851.62
983.103	6820.62
983.325	6814.62
983.547	6726.62
983.769	6677.62
983.991	6661.62
984.213	6648.62
984.435	6625.62
984.657	6570.62
984.879	6592.62
985.1	6511.62
985.322	6470.62
985.544	6412.62
985.765	6398.62
985.987	6396.62
986.208	6383.62
986.43	6292.62
986.651	6287.62
986.873	6209.62
987.094	6189.62
987.315	6231.62
987.536	6178.62
987.758	5989.62
987.979	6042.62
988.2	5996.62
988.421	5956.62
988.642	5946.62
988.863	5872.62
989.084	5870.62
989.305	5835.62
989.526	5765.62
989.747	5784.62
989.967	5670.62
990.188	5681.62
990.409	5604.62
990.629	5581.62
990.85	5541.62
991.071	5525.62
991.291	5474.62
991.512	5479.62
991.732	5425.62
991.952	5412.62
992.173	5411.62
992.393	5370.62
992.613	5366.62
992.834	5356.62
993.054	5328.62
993.274	5310.62
993.494	5226.62
993.714	5304.62
993.934	5236.62
994.154	5200.62
994.374	5194.62
994.594	5121.62
994.813	5165.62
995.033	5191.62
995.253	5080.62
995.473	5090.62
995.692	5074.62
995.912	5044.62
996.131	5001.62
996.351	4887.62
996.57	4945.62
996.79	4848.62
997.009	4819.62
997.228	4732.62
997.448	4781.62
997.667	4690.62
997.886	4610.62
998.105	4610.62
998.325	4613.62
998.544	4534.62
998.763	4566.62
998.982	4484.62
999.201	4433.62
999.419	4460.62
999.638	4414.62
999.857	4441.62
1000.076	4397.62
1000.295	4311.62
1000.513	4360.62
1000.732	4334.62
1000.95	4289.62
1001.169	4312.62
1001.388	4280.62
1001.606	4221.62
1001.824	4214.62
1002.043	4170.62
1002.261	4195.62
1002.479	4195.62
1002.698	4178.62
1002.916	4141.62
1003.134	4156.62
1003.352	4065.62
1003.57	4105.62
1003.788	4075.62
1004.006	4058.62
1004.224	4078.62
1004.442	3975.62
1004.66	3997.62
1004.878	3972.62
1005.095	3917.62
1005.313	3949.62
1005.531	3949.62
1005.748	3900.62
1005.966	3976.62
1006.184	3855.62
1006.401	3857.62
1006.618	3825.62
1006.836	3824.62
1007.053	3816.62
1007.271	3836.62
1007.488	3744.62
1007.705	3781.62
1007.922	3724.62
1008.139	3738.62
1008.357	3728.62
1008.574	3773.62
1008.791	3780.62
1009.008	3826.62
1009.225	3783.62
1009.441	3827.62
1009.658	3828.62
1009.875	3811.62
1010.092	3823.62
1010.309	3780.62
1010.525	3723.62
1010.742	3676.62
1010.958	3666.62
1011.175	3624.62
1011.391	3587.62
1011.608	3551.62
1011.824	3569.62
1012.041	3484.62
1012.257	3490.62
1012.473	3433.62
1012.689	3448.62
1012.906	3391.62
1013.122	3399.62
1013.338	3342.62
1013.554	3395.62
1013.77	3338.62
1013.986	3391.62
1014.202	3436.62
1014.418	3440.62
1014.634	3505.62
1014.849	3522.62
1015.065	3612.62
1015.281	3548.62
1015.496	3516.62
1015.712	3503.62
1015.928	3458.62
1016.143	3388.62
1016.359	3369.62
1016.574	3322.62
1016.79	3223.62
1017.005	3186.62
1017.22	3136.62
1017.435	3040.62
1017.651	3067.62
1017.866	3015.62
1018.081	2937.62
1018.296	2854.62
1018.511	2836.62
1018.726	2835.62
1018.941	2819.62
1019.156	2752.62
1019.371	2752.62
1019.586	2755.62
1019.801	2742.62
1020.015	2708.62
1020.23	2733.62
1020.445	2659.62
1020.659	2623.62
1020.874	2626.62
1021.088	2558.62
1021.303	2530.62
1021.517	2489.62
1021.732	2461.62
1021.946	2469.62
1022.16	2452.62
1022.375	2473.62
1022.589	2374.62
1022.803	2348.62
1023.017	2291.62
1023.231	2234.62
1023.445	2217.62
1023.659	2176.62
1023.873	2162.62
1024.087	2076.62
1024.301	2068.62
1024.515	2049.62
1024.729	1997.62
1024.942	1938.62
1025.156	1962.62
1025.37	1899.62
1025.583	1843.62
1025.797	1811.62
1026.01	1780.62
1026.224	1761.62
1026.437	1716.62
1026.651	1628.62
1026.864	1586.62
1027.077	1594.62
1027.291	1570.62
1027.504	1516.62
1027.717	1462.62
1027.93	1413.62
1028.143	1374.62
1028.356	1349.62
1028.569	1280.62
1028.782	1180.62
1028.995	-2.38
1029.208	-0.38
1029.421	-2.38
1029.634	-3.38
