Data from QEP037381__227__15-19-49-045.txt Node

Date: Mon Mar 14 15:19:49 EDT 2022
User: dcclab
Spectrometer: QEP03738
Trigger mode: 4
Integration Time (sec): 2.500000E0
Scans to average: 1
Electric dark correction enabled: true
Nonlinearity correction enabled: false
Boxcar width: 0
XAxis mode: Wavelengths
Number of Pixels in Spectrum: 1044
>>>>>Begin Spectral Data<<<<<
783.959	10.62
784.218	1.62
784.476	-6.38
784.734	-0.38
784.992	287.62
785.251	288.62
785.509	281.62
785.767	272.62
786.025	280.62
786.283	290.62
786.541	283.62
786.798	284.62
787.056	285.62
787.314	265.62
787.572	283.62
787.83	276.62
788.087	296.62
788.345	286.62
788.602	287.62
788.86	289.62
789.117	300.62
789.375	292.62
789.632	302.62
789.89	300.62
790.147	318.62
790.404	317.62
790.661	322.62
790.919	338.62
791.176	331.62
791.433	331.62
791.69	353.62
791.947	345.62
792.204	351.62
792.461	359.62
792.718	369.62
792.974	378.62
793.231	390.62
793.488	435.62
793.745	428.62
794.001	439.62
794.258	481.62
794.514	479.62
794.771	505.62
795.027	530.62
795.284	536.62
795.54	591.62
795.797	613.62
796.053	690.62
796.309	734.62
796.565	799.62
796.822	880.62
797.078	1004.62
797.334	1172.62
797.59	1392.62
797.846	1732.62
798.102	2286.62
798.358	3051.62
798.614	4327.62
798.869	6412.62
799.125	9389.62
799.381	13769.62
799.637	19587.62
799.892	26500.62
800.148	34207.62
800.403	41560.62
800.659	48072.62
800.914	52957.62
801.17	56486.62
801.425	58766.62
801.68	60515.62
801.936	61858.62
802.191	63225.62
802.446	64539.62
802.701	65867.62
802.957	67364.62
803.212	68672.62
803.467	69752.62
803.722	71370.62
803.977	72598.62
804.232	73978.62
804.486	75613.62
804.741	77037.62
804.996	78207.62
805.251	79562.62
805.505	80768.62
805.76	82260.62
806.015	83591.62
806.269	84662.62
806.524	85643.62
806.778	86202.62
807.033	86953.62
807.287	88159.62
807.541	89280.62
807.796	90479.62
808.05	91861.62
808.304	92362.62
808.558	93008.62
808.812	93384.62
809.066	93994.62
809.32	94701.62
809.574	95484.62
809.828	96102.62
810.082	96507.62
810.336	97326.62
810.59	98455.62
810.844	99508.62
811.097	100809.62
811.351	102170.62
811.605	103857.62
811.858	105787.62
812.112	107248.62
812.365	109014.62
812.619	110579.62
812.872	112160.62
813.126	113615.62
813.379	115063.62
813.632	116590.62
813.885	118182.62
814.139	120078.62
814.392	121502.62
814.645	123549.62
814.898	125730.62
815.151	127718.62
815.404	130190.62
815.657	132358.62
815.91	134088.62
816.163	135734.62
816.416	137218.62
816.668	138066.62
816.921	138815.62
817.174	139150.62
817.426	139442.62
817.679	139425.62
817.931	139264.62
818.184	139376.62
818.436	139563.62
818.689	139462.62
818.941	139509.62
819.194	139993.62
819.446	140593.62
819.698	141235.62
819.95	141958.62
820.202	142370.62
820.455	142803.62
820.707	143237.62
820.959	143409.62
821.211	143230.62
821.462	142907.62
821.714	142952.62
821.966	142202.62
822.218	141313.62
822.47	140637.62
822.722	140108.62
822.973	139600.62
823.225	139269.62
823.476	139002.62
823.728	138997.62
823.979	139261.62
824.231	139240.62
824.482	139185.62
824.734	139318.62
824.985	139188.62
825.236	138932.62
825.487	138480.62
825.739	138245.62
825.99	137747.62
826.241	137520.62
826.492	136672.62
826.743	136163.62
826.994	135384.62
827.245	134726.62
827.496	134695.62
827.747	134453.62
827.997	134364.62
828.248	134367.62
828.499	134191.62
828.75	134359.62
829	134477.62
829.251	134450.62
829.501	134233.62
829.752	133673.62
830.002	132631.62
830.253	131976.62
830.503	131279.62
830.753	130690.62
831.004	129637.62
831.254	129166.62
831.504	128705.62
831.754	128600.62
832.004	128330.62
832.254	128349.62
832.504	129052.62
832.754	128600.62
833.004	128628.62
833.254	128157.62
833.504	127847.62
833.754	127708.62
834.003	126742.62
834.253	126507.62
834.503	125740.62
834.752	124727.62
835.002	123966.62
835.252	123655.62
835.501	123138.62
835.75	122863.62
836	122523.62
836.249	122590.62
836.499	122058.62
836.748	122338.62
836.997	122106.62
837.246	122696.62
837.495	122584.62
837.744	123143.62
837.993	123370.62
838.242	123723.62
838.491	123478.62
838.74	122089.62
838.989	120736.62
839.238	120338.62
839.487	119211.62
839.736	118454.62
839.984	117774.62
840.233	117254.62
840.482	116709.62
840.73	116090.62
840.979	115984.62
841.227	115665.62
841.476	115537.62
841.724	115003.62
841.972	114402.62
842.221	114356.62
842.469	114026.62
842.717	113312.62
842.965	112937.62
843.213	112589.62
843.461	112234.62
843.71	111510.62
843.958	111241.62
844.205	111036.62
844.453	110936.62
844.701	110822.62
844.949	110450.62
845.197	110343.62
845.445	110588.62
845.692	110558.62
845.94	110748.62
846.188	110769.62
846.435	110415.62
846.683	109989.62
846.93	109617.62
847.178	109373.62
847.425	108331.62
847.672	107409.62
847.92	106570.62
848.167	105816.62
848.414	104607.62
848.661	103971.62
848.908	103323.62
849.155	103110.62
849.402	102894.62
849.649	103063.62
849.896	103410.62
850.143	103788.62
850.39	104204.62
850.637	104018.62
850.884	103815.62
851.131	103721.62
851.377	103411.62
851.624	103240.62
851.87	102723.62
852.117	102398.62
852.364	101654.62
852.61	101317.62
852.856	100941.62
853.103	100380.62
853.349	99897.62
853.595	99630.62
853.842	98799.62
854.088	98862.62
854.334	99055.62
854.58	98818.62
854.826	98188.62
855.072	97632.62
855.318	96860.62
855.564	96151.62
855.81	95390.62
856.056	94417.62
856.302	93909.62
856.548	93273.62
856.793	92855.62
857.039	92286.62
857.285	91799.62
857.53	91682.62
857.776	91744.62
858.021	92126.62
858.267	92353.62
858.512	92340.62
858.758	92949.62
859.003	92681.62
859.248	92835.62
859.493	92453.62
859.739	92330.62
859.984	92062.62
860.229	91613.62
860.474	91097.62
860.719	90551.62
860.964	89852.62
861.209	89286.62
861.454	88669.62
861.699	88128.62
861.943	87545.62
862.188	87375.62
862.433	87036.62
862.678	86667.62
862.922	86587.62
863.167	86255.62
863.411	86227.62
863.656	86053.62
863.9	85553.62
864.145	85302.62
864.389	85037.62
864.634	84313.62
864.878	84299.62
865.122	83957.62
865.366	83563.62
865.61	83240.62
865.855	83273.62
866.099	82968.62
866.343	82898.62
866.587	82685.62
866.831	82612.62
867.074	82373.62
867.318	82615.62
867.562	82529.62
867.806	82439.62
868.05	82208.62
868.293	81903.62
868.537	81918.62
868.78	81437.62
869.024	80921.62
869.267	80198.62
869.511	79934.62
869.754	79354.62
869.998	78745.62
870.241	77840.62
870.484	77290.62
870.728	76734.62
870.971	76348.62
871.214	75955.62
871.457	75828.62
871.7	75752.62
871.943	75745.62
872.186	75990.62
872.429	75768.62
872.672	75723.62
872.915	75817.62
873.158	75508.62
873.4	75607.62
873.643	75323.62
873.886	74938.62
874.128	74684.62
874.371	74489.62
874.613	74189.62
874.856	73971.62
875.098	73605.62
875.341	73550.62
875.583	73451.62
875.825	73062.62
876.068	72750.62
876.31	72137.62
876.552	71674.62
876.794	70974.62
877.036	70497.62
877.278	69921.62
877.52	69645.62
877.762	69193.62
878.004	68994.62
878.246	68885.62
878.488	68678.62
878.73	68774.62
878.972	68597.62
879.213	68495.62
879.455	68280.62
879.697	68042.62
879.938	68121.62
880.18	67742.62
880.421	67359.62
880.663	67366.62
880.904	67511.62
881.145	67332.62
881.387	67257.62
881.628	67152.62
881.869	67086.62
882.11	66831.62
882.352	66422.62
882.593	66308.62
882.834	66218.62
883.075	65835.62
883.316	65533.62
883.557	65391.62
883.797	65241.62
884.038	64733.62
884.279	63955.62
884.52	63146.62
884.761	62821.62
885.001	62042.62
885.242	61604.62
885.482	61186.62
885.723	60809.62
885.963	60528.62
886.204	60363.62
886.444	60039.62
886.685	59976.62
886.925	59653.62
887.165	59533.62
887.405	59140.62
887.646	58870.62
887.886	58790.62
888.126	58591.62
888.366	58673.62
888.606	58660.62
888.846	58828.62
889.086	58844.62
889.326	58682.62
889.565	58738.62
889.805	58833.62
890.045	58502.62
890.285	58345.62
890.524	58178.62
890.764	57904.62
891.003	57296.62
891.243	56765.62
891.482	56563.62
891.722	55990.62
891.961	55453.62
892.201	55089.62
892.44	54725.62
892.679	54474.62
892.918	54420.62
893.158	54143.62
893.397	54024.62
893.636	53808.62
893.875	53625.62
894.114	53491.62
894.353	53404.62
894.592	53057.62
894.831	52671.62
895.069	52454.62
895.308	52015.62
895.547	51827.62
895.786	51659.62
896.024	51315.62
896.263	51298.62
896.501	51197.62
896.74	50989.62
896.978	50873.62
897.217	50780.62
897.455	50699.62
897.694	50534.62
897.932	50256.62
898.17	50139.62
898.408	49900.62
898.646	49841.62
898.885	49602.62
899.123	49245.62
899.361	48907.62
899.599	48674.62
899.837	48418.62
900.075	48074.62
900.312	47659.62
900.55	47173.62
900.788	46820.62
901.026	46536.62
901.263	46181.62
901.501	45702.62
901.739	45550.62
901.976	45311.62
902.214	45003.62
902.451	44912.62
902.689	44925.62
902.926	44638.62
903.163	44637.62
903.401	44861.62
903.638	44689.62
903.875	44612.62
904.112	44593.62
904.349	44741.62
904.586	44352.62
904.823	44021.62
905.06	43769.62
905.297	43544.62
905.534	43136.62
905.771	42930.62
906.008	42489.62
906.245	42222.62
906.481	42037.62
906.718	41751.62
906.955	41563.62
907.191	41573.62
907.428	41225.62
907.664	41187.62
907.901	41024.62
908.137	40988.62
908.374	40662.62
908.61	40376.62
908.846	40398.62
909.083	40033.62
909.319	39783.62
909.555	39529.62
909.791	39289.62
910.027	38857.62
910.263	38628.62
910.499	38388.62
910.735	38025.62
910.971	37626.62
911.207	37554.62
911.443	37336.62
911.678	37045.62
911.914	36938.62
912.15	36775.62
912.385	36700.62
912.621	36736.62
912.857	36675.62
913.092	36643.62
913.328	36611.62
913.563	36463.62
913.798	36383.62
914.034	36223.62
914.269	36232.62
914.504	36121.62
914.739	35977.62
914.975	35850.62
915.21	35548.62
915.445	35348.62
915.68	35119.62
915.915	34617.62
916.15	34312.62
916.384	33882.62
916.619	33572.62
916.854	33272.62
917.089	33062.62
917.324	32781.62
917.558	32618.62
917.793	32374.62
918.028	32339.62
918.262	32130.62
918.497	32132.62
918.731	32177.62
918.965	32016.62
919.2	31994.62
919.434	31864.62
919.668	31678.62
919.903	31711.62
920.137	31565.62
920.371	31296.62
920.605	31278.62
920.839	30942.62
921.073	30678.62
921.307	30429.62
921.541	30193.62
921.775	30000.62
922.009	29990.62
922.243	29809.62
922.476	29748.62
922.71	29820.62
922.944	29634.62
923.177	29670.62
923.411	29471.62
923.644	29468.62
923.878	29279.62
924.111	29173.62
924.345	29112.62
924.578	28949.62
924.811	28796.62
925.045	28632.62
925.278	28494.62
925.511	28184.62
925.744	27940.62
925.977	27723.62
926.21	27523.62
926.443	27236.62
926.676	27013.62
926.909	26754.62
927.142	26686.62
927.375	26526.62
927.608	26294.62
927.841	26035.62
928.073	26066.62
928.306	26056.62
928.539	25882.62
928.771	25833.62
929.004	25735.62
929.236	25721.62
929.469	25778.62
929.701	25780.62
929.933	25686.62
930.166	25730.62
930.398	25659.62
930.63	25472.62
930.862	25526.62
931.094	25408.62
931.327	25219.62
931.559	25048.62
931.791	24750.62
932.023	24620.62
932.255	24515.62
932.486	24193.62
932.718	24153.62
932.95	23886.62
933.182	23788.62
933.413	23766.62
933.645	23499.62
933.877	23489.62
934.108	23441.62
934.34	23292.62
934.571	23084.62
934.803	22968.62
935.034	22895.62
935.265	22720.62
935.497	22726.62
935.728	22534.62
935.959	22473.62
936.19	22358.62
936.422	22291.62
936.653	22163.62
936.884	22031.62
937.115	21824.62
937.346	21681.62
937.577	21553.62
937.807	21332.62
938.038	21333.62
938.269	21356.62
938.5	21151.62
938.73	21075.62
938.961	21090.62
939.192	21119.62
939.422	20927.62
939.653	20848.62
939.883	20909.62
940.114	20867.62
940.344	20694.62
940.574	20603.62
940.805	20500.62
941.035	20305.62
941.265	20156.62
941.495	19987.62
941.726	19944.62
941.956	19702.62
942.186	19566.62
942.416	19259.62
942.646	19354.62
942.876	19136.62
943.105	18978.62
943.335	18792.62
943.565	18625.62
943.795	18416.62
944.024	18281.62
944.254	18257.62
944.484	18021.62
944.713	17909.62
944.943	17773.62
945.172	17726.62
945.402	17598.62
945.631	17612.62
945.86	17471.62
946.09	17549.62
946.319	17377.62
946.548	17437.62
946.777	17320.62
947.006	17184.62
947.235	17168.62
947.465	17052.62
947.694	16889.62
947.922	16786.62
948.151	16660.62
948.38	16512.62
948.609	16341.62
948.838	16151.62
949.067	16120.62
949.295	15999.62
949.524	15858.62
949.752	15756.62
949.981	15684.62
950.21	15491.62
950.438	15532.62
950.666	15382.62
950.895	15261.62
951.123	15107.62
951.351	15001.62
951.58	14909.62
951.808	14827.62
952.036	14708.62
952.264	14629.62
952.492	14597.62
952.72	14571.62
952.948	14385.62
953.176	14205.62
953.404	14191.62
953.632	14004.62
953.86	13860.62
954.088	13786.62
954.315	13703.62
954.543	13610.62
954.771	13443.62
954.998	13386.62
955.226	13406.62
955.453	13292.62
955.681	13236.62
955.908	13247.62
956.135	13252.62
956.363	13148.62
956.59	13064.62
956.817	13058.62
957.045	13001.62
957.272	12996.62
957.499	12877.62
957.726	12789.62
957.953	12781.62
958.18	12576.62
958.407	12583.62
958.634	12561.62
958.861	12507.62
959.087	12330.62
959.314	12195.62
959.541	12188.62
959.767	12063.62
959.994	12002.62
960.221	11926.62
960.447	11865.62
960.674	11684.62
960.9	11540.62
961.127	11547.62
961.353	11409.62
961.579	11357.62
961.806	11308.62
962.032	11287.62
962.258	11155.62
962.484	11088.62
962.71	11013.62
962.936	11007.62
963.162	10993.62
963.388	10980.62
963.614	10948.62
963.84	10960.62
964.066	10873.62
964.292	10802.62
964.518	10796.62
964.743	10739.62
964.969	10641.62
965.195	10701.62
965.42	10555.62
965.646	10523.62
965.871	10479.62
966.097	10342.62
966.322	10360.62
966.547	10281.62
966.773	10262.62
966.998	10139.62
967.223	10121.62
967.448	10162.62
967.674	9942.62
967.899	9875.62
968.124	9823.62
968.349	9761.62
968.574	9643.62
968.799	9685.62
969.024	9568.62
969.248	9590.62
969.473	9559.62
969.698	9523.62
969.923	9340.62
970.147	9338.62
970.372	9322.62
970.596	9167.62
970.821	9141.62
971.046	9144.62
971.27	9075.62
971.494	9008.62
971.719	8932.62
971.943	8869.62
972.167	8813.62
972.392	8725.62
972.616	8714.62
972.84	8695.62
973.064	8606.62
973.288	8522.62
973.512	8570.62
973.736	8523.62
973.96	8548.62
974.184	8450.62
974.408	8389.62
974.631	8360.62
974.855	8373.62
975.079	8320.62
975.303	8243.62
975.526	8249.62
975.75	8194.62
975.973	8144.62
976.197	8144.62
976.42	8109.62
976.644	8034.62
976.867	8025.62
977.09	7952.62
977.313	7902.62
977.537	7822.62
977.76	7729.62
977.983	7721.62
978.206	7659.62
978.429	7601.62
978.652	7573.62
978.875	7484.62
979.098	7419.62
979.321	7424.62
979.544	7395.62
979.767	7301.62
979.989	7235.62
980.212	7176.62
980.435	7150.62
980.657	7106.62
980.88	7021.62
981.102	7060.62
981.325	7005.62
981.547	6918.62
981.77	6912.62
981.992	6902.62
982.214	6864.62
982.437	6835.62
982.659	6819.62
982.881	6802.62
983.103	6789.62
983.325	6790.62
983.547	6696.62
983.769	6642.62
983.991	6638.62
984.213	6630.62
984.435	6623.62
984.657	6563.62
984.879	6509.62
985.1	6511.62
985.322	6477.62
985.544	6434.62
985.765	6358.62
985.987	6378.62
986.208	6340.62
986.43	6295.62
986.651	6232.62
986.873	6232.62
987.094	6213.62
987.315	6160.62
987.536	6126.62
987.758	6106.62
987.979	6004.62
988.2	5997.62
988.421	5967.62
988.642	5896.62
988.863	5857.62
989.084	5819.62
989.305	5819.62
989.526	5756.62
989.747	5709.62
989.967	5680.62
990.188	5637.62
990.409	5603.62
990.629	5603.62
990.85	5586.62
991.071	5508.62
991.291	5507.62
991.512	5435.62
991.732	5409.62
991.952	5387.62
992.173	5360.62
992.393	5317.62
992.613	5319.62
992.834	5332.62
993.054	5291.62
993.274	5274.62
993.494	5261.62
993.714	5256.62
993.934	5217.62
994.154	5228.62
994.374	5210.62
994.594	5157.62
994.813	5163.62
995.033	5109.62
995.253	5054.62
995.473	5106.62
995.692	4985.62
995.912	4949.62
996.131	5029.62
996.351	4944.62
996.57	4829.62
996.79	4844.62
997.009	4833.62
997.228	4737.62
997.448	4730.62
997.667	4690.62
997.886	4672.62
998.105	4625.62
998.325	4597.62
998.544	4529.62
998.763	4525.62
998.982	4519.62
999.201	4474.62
999.419	4411.62
999.638	4424.62
999.857	4406.62
1000.076	4368.62
1000.295	4312.62
1000.513	4320.62
1000.732	4319.62
1000.95	4266.62
1001.169	4308.62
1001.388	4250.62
1001.606	4263.62
1001.824	4224.62
1002.043	4178.62
1002.261	4122.62
1002.479	4165.62
1002.698	4132.62
1002.916	4150.62
1003.134	4142.62
1003.352	4089.62
1003.57	4064.62
1003.788	4045.62
1004.006	4040.62
1004.224	4051.62
1004.442	4001.62
1004.66	3963.62
1004.878	3960.62
1005.095	3939.62
1005.313	3929.62
1005.531	3913.62
1005.748	3865.62
1005.966	3940.62
1006.184	3846.62
1006.401	3852.62
1006.618	3831.62
1006.836	3791.62
1007.053	3834.62
1007.271	3780.62
1007.488	3793.62
1007.705	3796.62
1007.922	3808.62
1008.139	3750.62
1008.357	3742.62
1008.574	3728.62
1008.791	3740.62
1009.008	3786.62
1009.225	3738.62
1009.441	3804.62
1009.658	3806.62
1009.875	3836.62
1010.092	3791.62
1010.309	3779.62
1010.525	3718.62
1010.742	3706.62
1010.958	3670.62
1011.175	3629.62
1011.391	3598.62
1011.608	3524.62
1011.824	3534.62
1012.041	3455.62
1012.257	3479.62
1012.473	3414.62
1012.689	3412.62
1012.906	3384.62
1013.122	3389.62
1013.338	3398.62
1013.554	3405.62
1013.77	3346.62
1013.986	3360.62
1014.202	3418.62
1014.418	3422.62
1014.634	3489.62
1014.849	3513.62
1015.065	3583.62
1015.281	3517.62
1015.496	3533.62
1015.712	3484.62
1015.928	3426.62
1016.143	3395.62
1016.359	3358.62
1016.574	3273.62
1016.79	3215.62
1017.005	3228.62
1017.22	3079.62
1017.435	3045.62
1017.651	3035.62
1017.866	2929.62
1018.081	2899.62
1018.296	2873.62
1018.511	2821.62
1018.726	2820.62
1018.941	2785.62
1019.156	2744.62
1019.371	2789.62
1019.586	2775.62
1019.801	2738.62
1020.015	2704.62
1020.23	2697.62
1020.445	2639.62
1020.659	2633.62
1020.874	2599.62
1021.088	2559.62
1021.303	2516.62
1021.517	2490.62
1021.732	2499.62
1021.946	2447.62
1022.16	2453.62
1022.375	2375.62
1022.589	2353.62
1022.803	2350.62
1023.017	2303.62
1023.231	2241.62
1023.445	2197.62
1023.659	2156.62
1023.873	2138.62
1024.087	2087.62
1024.301	2052.62
1024.515	2037.62
1024.729	1995.62
1024.942	1956.62
1025.156	1920.62
1025.37	1896.62
1025.583	1844.62
1025.797	1825.62
1026.01	1804.62
1026.224	1736.62
1026.437	1671.62
1026.651	1622.62
1026.864	1592.62
1027.077	1590.62
1027.291	1529.62
1027.504	1514.62
1027.717	1482.62
1027.93	1425.62
1028.143	1386.62
1028.356	1332.62
1028.569	1270.62
1028.782	1203.62
1028.995	1.62
1029.208	-3.38
1029.421	-2.38
1029.634	-1.38
