Data from QEP037381__236__15-25-21-549.txt Node

Date: Mon Mar 14 15:25:21 EDT 2022
User: dcclab
Spectrometer: QEP03738
Trigger mode: 4
Integration Time (sec): 2.500000E0
Scans to average: 1
Electric dark correction enabled: true
Nonlinearity correction enabled: false
Boxcar width: 0
XAxis mode: Wavelengths
Number of Pixels in Spectrum: 1044
>>>>>Begin Spectral Data<<<<<
783.959	14.25
784.218	0.25
784.476	-0.75
784.734	-4.75
784.992	247.25
785.251	246.25
785.509	234.25
785.767	240.25
786.025	224.25
786.283	240.25
786.541	244.25
786.798	241.25
787.056	225.25
787.314	218.25
787.572	233.25
787.83	229.25
788.087	238.25
788.345	220.25
788.602	226.25
788.86	233.25
789.117	232.25
789.375	225.25
789.632	230.25
789.89	220.25
790.147	256.25
790.404	238.25
790.661	248.25
790.919	252.25
791.176	248.25
791.433	248.25
791.69	254.25
791.947	253.25
792.204	250.25
792.461	273.25
792.718	268.25
792.974	290.25
793.231	287.25
793.488	314.25
793.745	315.25
794.001	322.25
794.258	351.25
794.514	339.25
794.771	364.25
795.027	369.25
795.284	396.25
795.54	420.25
795.797	433.25
796.053	477.25
796.309	510.25
796.565	542.25
796.822	608.25
797.078	669.25
797.334	774.25
797.59	915.25
797.846	1159.25
798.102	1493.25
798.358	1994.25
798.614	2808.25
798.869	4089.25
799.125	6031.25
799.381	8763.25
799.637	12440.25
799.892	16826.25
800.148	21726.25
800.403	26380.25
800.659	30443.25
800.914	33487.25
801.17	35691.25
801.425	37214.25
801.68	38238.25
801.936	39040.25
802.191	39973.25
802.446	40767.25
802.701	41823.25
802.957	42725.25
803.212	43715.25
803.467	44511.25
803.722	45384.25
803.977	46410.25
804.232	47359.25
804.486	48428.25
804.741	49267.25
804.996	50291.25
805.251	51083.25
805.505	52003.25
805.76	52957.25
806.015	53702.25
806.269	54521.25
806.524	55114.25
806.778	55764.25
807.033	56262.25
807.287	56783.25
807.541	57735.25
807.796	58570.25
808.05	59379.25
808.304	59946.25
808.558	60260.25
808.812	60749.25
809.066	61070.25
809.32	61644.25
809.574	62042.25
809.828	62614.25
810.082	63104.25
810.336	63648.25
810.59	64363.25
810.844	65191.25
811.097	66229.25
811.351	67040.25
811.605	68230.25
811.858	69330.25
812.112	70325.25
812.365	71673.25
812.619	72998.25
812.872	73828.25
813.126	74990.25
813.379	75844.25
813.632	76900.25
813.885	78020.25
814.139	79275.25
814.392	80516.25
814.645	81700.25
814.898	83300.25
815.151	84855.25
815.404	86616.25
815.657	88082.25
815.91	89584.25
816.163	90397.25
816.416	91696.25
816.668	92163.25
816.921	92663.25
817.174	93164.25
817.426	93342.25
817.679	93052.25
817.931	93214.25
818.184	93206.25
818.436	93318.25
818.689	93417.25
818.941	93720.25
819.194	94088.25
819.446	94575.25
819.698	94999.25
819.95	95562.25
820.202	95989.25
820.455	96537.25
820.707	96581.25
820.959	96755.25
821.211	96617.25
821.462	96594.25
821.714	96595.25
821.966	96110.25
822.218	95850.25
822.47	95198.25
822.722	95120.25
822.973	94920.25
823.225	94622.25
823.476	94533.25
823.728	94215.25
823.979	94414.25
824.231	94480.25
824.482	94719.25
824.734	94863.25
824.985	94968.25
825.236	94739.25
825.487	94797.25
825.739	94159.25
825.99	93922.25
826.241	93573.25
826.492	93415.25
826.743	92805.25
826.994	92506.25
827.245	92172.25
827.496	92037.25
827.747	91844.25
827.997	92155.25
828.248	92072.25
828.499	92054.25
828.75	92177.25
829	92222.25
829.251	92219.25
829.501	92225.25
829.752	91918.25
830.002	91314.25
830.253	91029.25
830.503	90517.25
830.753	90054.25
831.004	89521.25
831.254	88854.25
831.504	88912.25
831.754	88596.25
832.004	88793.25
832.254	88750.25
832.504	88713.25
832.754	88766.25
833.004	88830.25
833.254	88551.25
833.504	88375.25
833.754	88136.25
834.003	88141.25
834.253	87562.25
834.503	87204.25
834.752	86687.25
835.002	86095.25
835.252	85851.25
835.501	85624.25
835.75	85422.25
836	85258.25
836.249	85202.25
836.499	85134.25
836.748	85173.25
836.997	85027.25
837.246	85376.25
837.495	85625.25
837.744	86129.25
837.993	86369.25
838.242	86895.25
838.491	86683.25
838.74	85865.25
838.989	84705.25
839.238	83900.25
839.487	83381.25
839.736	82835.25
839.984	82341.25
840.233	82011.25
840.482	81419.25
840.73	81375.25
840.979	81148.25
841.227	81129.25
841.476	80549.25
841.724	80216.25
841.972	80153.25
842.221	80010.25
842.469	79805.25
842.717	79379.25
842.965	79109.25
843.213	78997.25
843.461	78754.25
843.71	78294.25
843.958	78007.25
844.205	77892.25
844.453	77896.25
844.701	77703.25
844.949	77662.25
845.197	77578.25
845.445	77457.25
845.692	77873.25
845.94	77637.25
846.188	77760.25
846.435	77706.25
846.683	77495.25
846.93	77412.25
847.178	76816.25
847.425	76241.25
847.672	75692.25
847.92	75018.25
848.167	74463.25
848.414	73799.25
848.661	73262.25
848.908	72986.25
849.155	72743.25
849.402	72584.25
849.649	72666.25
849.896	73121.25
850.143	73568.25
850.39	73729.25
850.637	73550.25
850.884	73706.25
851.131	73489.25
851.377	73184.25
851.624	73035.25
851.87	72720.25
852.117	72735.25
852.364	71938.25
852.61	71775.25
852.856	71558.25
853.103	71250.25
853.349	71168.25
853.595	70802.25
853.842	70205.25
854.088	70102.25
854.334	70312.25
854.58	70234.25
854.826	69830.25
855.072	69373.25
855.318	68748.25
855.564	68143.25
855.81	67395.25
856.056	67092.25
856.302	66643.25
856.548	66298.25
856.793	65736.25
857.039	65407.25
857.285	65346.25
857.53	65249.25
857.776	65377.25
858.021	65622.25
858.267	65833.25
858.512	65610.25
858.758	66165.25
859.003	66257.25
859.248	66027.25
859.493	66037.25
859.739	65816.25
859.984	65431.25
860.229	65220.25
860.474	64806.25
860.719	64446.25
860.964	64054.25
861.209	63821.25
861.454	63368.25
861.699	62844.25
861.943	62616.25
862.188	62413.25
862.433	62210.25
862.678	61935.25
862.922	61754.25
863.167	61820.25
863.411	61605.25
863.656	61476.25
863.9	61263.25
864.145	61171.25
864.389	60675.25
864.634	60448.25
864.878	60305.25
865.122	60073.25
865.366	59950.25
865.61	59765.25
865.855	59600.25
866.099	59557.25
866.343	59410.25
866.587	59446.25
866.831	59385.25
867.074	59403.25
867.318	59422.25
867.562	58975.25
867.806	59246.25
868.05	59084.25
868.293	59005.25
868.537	58824.25
868.78	58615.25
869.024	58189.25
869.267	57846.25
869.511	57513.25
869.754	57096.25
869.998	56567.25
870.241	56074.25
870.484	55521.25
870.728	55226.25
870.971	55140.25
871.214	54701.25
871.457	54609.25
871.7	54436.25
871.943	54596.25
872.186	54835.25
872.429	54832.25
872.672	54750.25
872.915	54755.25
873.158	54861.25
873.4	54780.25
873.643	54514.25
873.886	54290.25
874.128	54222.25
874.371	53852.25
874.613	53829.25
874.856	53697.25
875.098	53423.25
875.341	53384.25
875.583	53270.25
875.825	52972.25
876.068	52794.25
876.31	52367.25
876.552	51993.25
876.794	51439.25
877.036	51233.25
877.278	50809.25
877.52	50526.25
877.762	50308.25
878.004	50159.25
878.246	50142.25
878.488	50046.25
878.73	49998.25
878.972	49726.25
879.213	49842.25
879.455	49796.25
879.697	49747.25
879.938	49658.25
880.18	49325.25
880.421	49204.25
880.663	49238.25
880.904	49365.25
881.145	49320.25
881.387	49347.25
881.628	49364.25
881.869	49153.25
882.11	49002.25
882.352	48767.25
882.593	48686.25
882.834	48476.25
883.075	48380.25
883.316	48264.25
883.557	47958.25
883.797	47803.25
884.038	47489.25
884.279	46964.25
884.52	46486.25
884.761	45980.25
885.001	45636.25
885.242	45240.25
885.482	45137.25
885.723	44809.25
885.963	44613.25
886.204	44330.25
886.444	44359.25
886.685	44154.25
886.925	43891.25
887.165	43720.25
887.405	43528.25
887.646	43578.25
887.886	43205.25
888.126	43123.25
888.366	43131.25
888.606	43187.25
888.846	43287.25
889.086	43415.25
889.326	43340.25
889.565	43438.25
889.805	43341.25
890.045	43325.25
890.285	43158.25
890.524	43005.25
890.764	42779.25
891.003	42500.25
891.243	41960.25
891.482	41616.25
891.722	41294.25
891.961	41023.25
892.201	40968.25
892.44	40688.25
892.679	40491.25
892.918	40272.25
893.158	40223.25
893.397	40098.25
893.636	39987.25
893.875	39806.25
894.114	39723.25
894.353	39522.25
894.592	39564.25
894.831	39231.25
895.069	38951.25
895.308	38868.25
895.547	38554.25
895.786	38447.25
896.024	38300.25
896.263	38235.25
896.501	38060.25
896.74	38035.25
896.978	38070.25
897.217	38004.25
897.455	37799.25
897.694	37717.25
897.932	37546.25
898.17	37514.25
898.408	37570.25
898.646	37223.25
898.885	37058.25
899.123	36921.25
899.361	36752.25
899.599	36377.25
899.837	36293.25
900.075	36037.25
900.312	35787.25
900.55	35487.25
900.788	34964.25
901.026	34861.25
901.263	34623.25
901.501	34311.25
901.739	34200.25
901.976	34028.25
902.214	33896.25
902.451	33750.25
902.689	33826.25
902.926	33715.25
903.163	33660.25
903.401	33818.25
903.638	33687.25
903.875	33760.25
904.112	33462.25
904.349	33427.25
904.586	33322.25
904.823	33300.25
905.06	33061.25
905.297	32869.25
905.534	32474.25
905.771	32260.25
906.008	32148.25
906.245	31954.25
906.481	31873.25
906.718	31498.25
906.955	31430.25
907.191	31211.25
907.428	31110.25
907.664	31075.25
907.901	30986.25
908.137	30838.25
908.374	30755.25
908.61	30553.25
908.846	30514.25
909.083	30255.25
909.319	30124.25
909.555	29787.25
909.791	29628.25
910.027	29488.25
910.263	29284.25
910.499	28996.25
910.735	28895.25
910.971	28555.25
911.207	28576.25
911.443	28364.25
911.678	28034.25
911.914	27985.25
912.15	28131.25
912.385	27936.25
912.621	27987.25
912.857	27947.25
913.092	27873.25
913.328	27868.25
913.563	27800.25
913.798	27720.25
914.034	27634.25
914.269	27625.25
914.504	27582.25
914.739	27443.25
914.975	27282.25
915.21	27181.25
915.445	27020.25
915.68	26763.25
915.915	26513.25
916.15	26300.25
916.384	26016.25
916.619	25627.25
916.854	25570.25
917.089	25385.25
917.324	25161.25
917.558	25057.25
917.793	24922.25
918.028	24701.25
918.262	24757.25
918.497	24818.25
918.731	24686.25
918.965	24704.25
919.2	24566.25
919.434	24462.25
919.668	24518.25
919.903	24400.25
920.137	24334.25
920.371	24201.25
920.605	24056.25
920.839	23920.25
921.073	23653.25
921.307	23497.25
921.541	23376.25
921.775	23290.25
922.009	23272.25
922.243	23132.25
922.476	23006.25
922.71	23123.25
922.944	23034.25
923.177	22874.25
923.411	22932.25
923.644	22945.25
923.878	22824.25
924.111	22720.25
924.345	22664.25
924.578	22571.25
924.811	22437.25
925.045	22354.25
925.278	22078.25
925.511	21975.25
925.744	21857.25
925.977	21671.25
926.21	21482.25
926.443	21325.25
926.676	21047.25
926.909	21071.25
927.142	20918.25
927.375	20766.25
927.608	20598.25
927.841	20545.25
928.073	20401.25
928.306	20401.25
928.539	20411.25
928.771	20274.25
929.004	20356.25
929.236	20366.25
929.469	20365.25
929.701	20303.25
929.933	20419.25
930.166	20276.25
930.398	20272.25
930.63	20254.25
930.862	20138.25
931.094	20121.25
931.327	19963.25
931.559	19886.25
931.791	19736.25
932.023	19614.25
932.255	19529.25
932.486	19217.25
932.718	19204.25
932.95	19007.25
933.182	18896.25
933.413	18855.25
933.645	18757.25
933.877	18684.25
934.108	18660.25
934.34	18556.25
934.571	18474.25
934.803	18443.25
935.034	18383.25
935.265	18213.25
935.497	18207.25
935.728	18109.25
935.959	18090.25
936.19	17968.25
936.422	17971.25
936.653	17767.25
936.884	17718.25
937.115	17582.25
937.346	17460.25
937.577	17376.25
937.807	17280.25
938.038	17267.25
938.269	17331.25
938.5	17221.25
938.73	17195.25
938.961	17132.25
939.192	17009.25
939.422	17059.25
939.653	17016.25
939.883	17049.25
940.114	17051.25
940.344	16931.25
940.574	16889.25
940.805	16865.25
941.035	16649.25
941.265	16533.25
941.495	16465.25
941.726	16383.25
941.956	16199.25
942.186	16142.25
942.416	15977.25
942.646	15900.25
942.876	15725.25
943.105	15697.25
943.335	15560.25
943.565	15462.25
943.795	15298.25
944.024	15175.25
944.254	14995.25
944.484	15039.25
944.713	15022.25
944.943	14844.25
945.172	14799.25
945.402	14794.25
945.631	14662.25
945.86	14750.25
946.09	14644.25
946.319	14623.25
946.548	14593.25
946.777	14567.25
947.006	14660.25
947.235	14506.25
947.465	14395.25
947.694	14299.25
947.922	14262.25
948.151	14156.25
948.38	14025.25
948.609	13964.25
948.838	13825.25
949.067	13692.25
949.295	13743.25
949.524	13582.25
949.752	13605.25
949.981	13426.25
950.21	13367.25
950.438	13257.25
950.666	13219.25
950.895	13111.25
951.123	13071.25
951.351	13038.25
951.58	12843.25
951.808	12829.25
952.036	12773.25
952.264	12809.25
952.492	12624.25
952.72	12571.25
952.948	12540.25
953.176	12388.25
953.404	12339.25
953.632	12248.25
953.86	12110.25
954.088	12084.25
954.315	11908.25
954.543	11933.25
954.771	11804.25
954.998	11742.25
955.226	11733.25
955.453	11693.25
955.681	11685.25
955.908	11609.25
956.135	11616.25
956.363	11574.25
956.59	11567.25
956.817	11542.25
957.045	11493.25
957.272	11457.25
957.499	11379.25
957.726	11390.25
957.953	11382.25
958.18	11178.25
958.407	11257.25
958.634	11149.25
958.861	10982.25
959.087	10940.25
959.314	10854.25
959.541	10861.25
959.767	10806.25
959.994	10632.25
960.221	10592.25
960.447	10484.25
960.674	10455.25
960.9	10293.25
961.127	10246.25
961.353	10185.25
961.579	10144.25
961.806	10118.25
962.032	10059.25
962.258	9913.25
962.484	9945.25
962.71	9932.25
962.936	9870.25
963.162	9893.25
963.388	9838.25
963.614	9830.25
963.84	9778.25
964.066	9743.25
964.292	9761.25
964.518	9734.25
964.743	9609.25
964.969	9618.25
965.195	9566.25
965.42	9542.25
965.646	9449.25
965.871	9411.25
966.097	9410.25
966.322	9309.25
966.547	9347.25
966.773	9213.25
966.998	9227.25
967.223	9175.25
967.448	9117.25
967.674	9038.25
967.899	8957.25
968.124	8995.25
968.349	8908.25
968.574	8843.25
968.799	8793.25
969.024	8707.25
969.248	8715.25
969.473	8595.25
969.698	8643.25
969.923	8561.25
970.147	8464.25
970.372	8472.25
970.596	8428.25
970.821	8348.25
971.046	8288.25
971.27	8199.25
971.494	8218.25
971.719	8149.25
971.943	8056.25
972.167	8002.25
972.392	7976.25
972.616	7934.25
972.84	7853.25
973.064	7849.25
973.288	7865.25
973.512	7835.25
973.736	7749.25
973.96	7732.25
974.184	7730.25
974.408	7674.25
974.631	7646.25
974.855	7688.25
975.079	7592.25
975.303	7591.25
975.526	7505.25
975.75	7495.25
975.973	7434.25
976.197	7467.25
976.42	7413.25
976.644	7422.25
976.867	7311.25
977.09	7278.25
977.313	7247.25
977.537	7186.25
977.76	7127.25
977.983	7016.25
978.206	6995.25
978.429	7009.25
978.652	6934.25
978.875	6845.25
979.098	6858.25
979.321	6806.25
979.544	6663.25
979.767	6670.25
979.989	6661.25
980.212	6603.25
980.435	6540.25
980.657	6519.25
980.88	6519.25
981.102	6518.25
981.325	6442.25
981.547	6403.25
981.77	6374.25
981.992	6357.25
982.214	6376.25
982.437	6285.25
982.659	6303.25
982.881	6297.25
983.103	6243.25
983.325	6228.25
983.547	6174.25
983.769	6172.25
983.991	6087.25
984.213	6095.25
984.435	6027.25
984.657	6075.25
984.879	5989.25
985.1	5980.25
985.322	5933.25
985.544	5930.25
985.765	5891.25
985.987	5878.25
986.208	5817.25
986.43	5793.25
986.651	5766.25
986.873	5732.25
987.094	5714.25
987.315	5647.25
987.536	5594.25
987.758	5565.25
987.979	5584.25
988.2	5529.25
988.421	5476.25
988.642	5445.25
988.863	5424.25
989.084	5400.25
989.305	5353.25
989.526	5327.25
989.747	5313.25
989.967	5202.25
990.188	5207.25
990.409	5159.25
990.629	5176.25
990.85	5108.25
991.071	5025.25
991.291	5041.25
991.512	5054.25
991.732	4995.25
991.952	4993.25
992.173	4966.25
992.393	4954.25
992.613	4922.25
992.834	4947.25
993.054	4899.25
993.274	4875.25
993.494	4838.25
993.714	4904.25
993.934	4803.25
994.154	4827.25
994.374	4773.25
994.594	4703.25
994.813	4716.25
995.033	4713.25
995.253	4709.25
995.473	4686.25
995.692	4629.25
995.912	4636.25
996.131	4572.25
996.351	4559.25
996.57	4513.25
996.79	4451.25
997.009	4436.25
997.228	4410.25
997.448	4345.25
997.667	4302.25
997.886	4214.25
998.105	4233.25
998.325	4237.25
998.544	4199.25
998.763	4142.25
998.982	4146.25
999.201	4088.25
999.419	4055.25
999.638	4089.25
999.857	4032.25
1000.076	4032.25
1000.295	3992.25
1000.513	4004.25
1000.732	3954.25
1000.95	3957.25
1001.169	3939.25
1001.388	3930.25
1001.606	3917.25
1001.824	3865.25
1002.043	3839.25
1002.261	3853.25
1002.479	3819.25
1002.698	3848.25
1002.916	3803.25
1003.134	3824.25
1003.352	3779.25
1003.57	3731.25
1003.788	3719.25
1004.006	3686.25
1004.224	3709.25
1004.442	3678.25
1004.66	3662.25
1004.878	3630.25
1005.095	3620.25
1005.313	3593.25
1005.531	3578.25
1005.748	3583.25
1005.966	3647.25
1006.184	3553.25
1006.401	3554.25
1006.618	3517.25
1006.836	3532.25
1007.053	3493.25
1007.271	3467.25
1007.488	3468.25
1007.705	3443.25
1007.922	3457.25
1008.139	3408.25
1008.357	3420.25
1008.574	3459.25
1008.791	3458.25
1009.008	3484.25
1009.225	3499.25
1009.441	3507.25
1009.658	3490.25
1009.875	3518.25
1010.092	3472.25
1010.309	3444.25
1010.525	3464.25
1010.742	3432.25
1010.958	3348.25
1011.175	3382.25
1011.391	3306.25
1011.608	3329.25
1011.824	3302.25
1012.041	3205.25
1012.257	3208.25
1012.473	3170.25
1012.689	3182.25
1012.906	3114.25
1013.122	3115.25
1013.338	3108.25
1013.554	3159.25
1013.77	3103.25
1013.986	3137.25
1014.202	3178.25
1014.418	3198.25
1014.634	3267.25
1014.849	3270.25
1015.065	3284.25
1015.281	3316.25
1015.496	3295.25
1015.712	3259.25
1015.928	3205.25
1016.143	3137.25
1016.359	3092.25
1016.574	3018.25
1016.79	2980.25
1017.005	2928.25
1017.22	2842.25
1017.435	2795.25
1017.651	2751.25
1017.866	2748.25
1018.081	2675.25
1018.296	2657.25
1018.511	2625.25
1018.726	2605.25
1018.941	2568.25
1019.156	2517.25
1019.371	2515.25
1019.586	2530.25
1019.801	2480.25
1020.015	2488.25
1020.23	2486.25
1020.445	2432.25
1020.659	2404.25
1020.874	2384.25
1021.088	2320.25
1021.303	2322.25
1021.517	2275.25
1021.732	2277.25
1021.946	2253.25
1022.16	2240.25
1022.375	2186.25
1022.589	2171.25
1022.803	2156.25
1023.017	2076.25
1023.231	2048.25
1023.445	2004.25
1023.659	1942.25
1023.873	1937.25
1024.087	1877.25
1024.301	1878.25
1024.515	1833.25
1024.729	1830.25
1024.942	1745.25
1025.156	1746.25
1025.37	1717.25
1025.583	1696.25
1025.797	1622.25
1026.01	1637.25
1026.224	1575.25
1026.437	1532.25
1026.651	1486.25
1026.864	1452.25
1027.077	1445.25
1027.291	1410.25
1027.504	1349.25
1027.717	1314.25
1027.93	1275.25
1028.143	1229.25
1028.356	1228.25
1028.569	1155.25
1028.782	1090.25
1028.995	-2.75
1029.208	-1.75
1029.421	-2.75
1029.634	-1.75
