Data from QEP037381__259__15-26-19-050.txt Node

Date: Mon Mar 14 15:26:19 EDT 2022
User: dcclab
Spectrometer: QEP03738
Trigger mode: 4
Integration Time (sec): 2.500000E0
Scans to average: 1
Electric dark correction enabled: true
Nonlinearity correction enabled: false
Boxcar width: 0
XAxis mode: Wavelengths
Number of Pixels in Spectrum: 1044
>>>>>Begin Spectral Data<<<<<
783.959	13.88
784.218	-4.12
784.476	-2.12
784.734	-5.12
784.992	254.88
785.251	247.88
785.509	238.88
785.767	241.88
786.025	236.88
786.283	244.88
786.541	241.88
786.798	240.88
787.056	228.88
787.314	213.88
787.572	232.88
787.83	217.88
788.087	245.88
788.345	241.88
788.602	225.88
788.86	240.88
789.117	242.88
789.375	226.88
789.632	238.88
789.89	234.88
790.147	247.88
790.404	242.88
790.661	249.88
790.919	255.88
791.176	251.88
791.433	255.88
791.69	267.88
791.947	266.88
792.204	254.88
792.461	280.88
792.718	276.88
792.974	290.88
793.231	299.88
793.488	334.88
793.745	310.88
794.001	340.88
794.258	356.88
794.514	348.88
794.771	363.88
795.027	375.88
795.284	410.88
795.54	435.88
795.797	432.88
796.053	476.88
796.309	517.88
796.565	572.88
796.822	620.88
797.078	695.88
797.334	798.88
797.59	941.88
797.846	1156.88
798.102	1506.88
798.358	2008.88
798.614	2878.88
798.869	4173.88
799.125	6116.88
799.381	8873.88
799.637	12645.88
799.892	17203.88
800.148	22015.88
800.403	26918.88
800.659	31024.88
800.914	34301.88
801.17	36569.88
801.425	38087.88
801.68	39118.88
801.936	40176.88
802.191	40994.88
802.446	41936.88
802.701	42750.88
802.957	43769.88
803.212	44792.88
803.467	45630.88
803.722	46580.88
803.977	47683.88
804.232	48527.88
804.486	49430.88
804.741	50525.88
804.996	51588.88
805.251	52398.88
805.505	53295.88
805.76	54374.88
806.015	55151.88
806.269	55981.88
806.524	56753.88
806.778	57207.88
807.033	57676.88
807.287	58211.88
807.541	59442.88
807.796	60132.88
808.05	60931.88
808.304	61434.88
808.558	61894.88
808.812	62206.88
809.066	62809.88
809.32	63266.88
809.574	63850.88
809.828	64392.88
810.082	64815.88
810.336	65342.88
810.59	66114.88
810.844	66856.88
811.097	67841.88
811.351	68875.88
811.605	69796.88
811.858	70931.88
812.112	72382.88
812.365	73390.88
812.619	74710.88
812.872	75910.88
813.126	76953.88
813.379	77887.88
813.632	79061.88
813.885	80217.88
814.139	81382.88
814.392	82490.88
814.645	83809.88
814.898	85384.88
815.151	87108.88
815.404	88757.88
815.657	90475.88
815.91	91805.88
816.163	93039.88
816.416	93980.88
816.668	94667.88
816.921	95281.88
817.174	95537.88
817.426	95574.88
817.679	95842.88
817.931	95488.88
818.184	95765.88
818.436	95977.88
818.689	95951.88
818.941	96157.88
819.194	96521.88
819.446	96986.88
819.698	97502.88
819.95	97862.88
820.202	98067.88
820.455	98939.88
820.707	99152.88
820.959	99245.88
821.211	99229.88
821.462	99146.88
821.714	99080.88
821.966	98722.88
822.218	98211.88
822.47	97863.88
822.722	97694.88
822.973	97479.88
823.225	97044.88
823.476	96857.88
823.728	96936.88
823.979	96926.88
824.231	97282.88
824.482	97242.88
824.734	97085.88
824.985	97519.88
825.236	97458.88
825.487	97232.88
825.739	96860.88
825.99	96515.88
826.241	96364.88
826.492	95679.88
826.743	95274.88
826.994	94751.88
827.245	94555.88
827.496	94432.88
827.747	94421.88
827.997	94372.88
828.248	94394.88
828.499	94582.88
828.75	94687.88
829	94983.88
829.251	94833.88
829.501	94543.88
829.752	94367.88
830.002	93910.88
830.253	93562.88
830.503	92867.88
830.753	92575.88
831.004	91821.88
831.254	91243.88
831.504	91327.88
831.754	91040.88
832.004	91076.88
832.254	91215.88
832.504	91243.88
832.754	91129.88
833.004	91072.88
833.254	91040.88
833.504	90904.88
833.754	90631.88
834.003	90402.88
834.253	90246.88
834.503	89645.88
834.752	88985.88
835.002	88734.88
835.252	88179.88
835.501	87826.88
835.75	87814.88
836	87660.88
836.249	87654.88
836.499	87531.88
836.748	87343.88
836.997	87468.88
837.246	87709.88
837.495	88020.88
837.744	88471.88
837.993	89091.88
838.242	89119.88
838.491	88959.88
838.74	88284.88
838.989	87114.88
839.238	86585.88
839.487	85589.88
839.736	84944.88
839.984	84576.88
840.233	84264.88
840.482	83901.88
840.73	83532.88
840.979	83246.88
841.227	83293.88
841.476	82808.88
841.724	82417.88
841.972	82453.88
842.221	82410.88
842.469	81880.88
842.717	81474.88
842.965	81347.88
843.213	81263.88
843.461	80858.88
843.71	80489.88
843.958	80341.88
844.205	80149.88
844.453	79934.88
844.701	80097.88
844.949	79840.88
845.197	79815.88
845.445	79781.88
845.692	79895.88
845.94	79926.88
846.188	79957.88
846.435	79975.88
846.683	79861.88
846.93	79359.88
847.178	79157.88
847.425	78415.88
847.672	77639.88
847.92	77329.88
848.167	76754.88
848.414	76093.88
848.661	75223.88
848.908	74895.88
849.155	74812.88
849.402	74661.88
849.649	74861.88
849.896	75197.88
850.143	75549.88
850.39	75834.88
850.637	75772.88
850.884	75819.88
851.131	75593.88
851.377	75312.88
851.624	75271.88
851.87	74993.88
852.117	74470.88
852.364	74279.88
852.61	73971.88
852.856	73770.88
853.103	73393.88
853.349	73050.88
853.595	72657.88
853.842	72436.88
854.088	72302.88
854.334	72377.88
854.58	72236.88
854.826	71783.88
855.072	71183.88
855.318	70820.88
855.564	70185.88
855.81	69644.88
856.056	69324.88
856.302	68604.88
856.548	68240.88
856.793	67801.88
857.039	67431.88
857.285	67349.88
857.53	67144.88
857.776	67283.88
858.021	67661.88
858.267	67703.88
858.512	68008.88
858.758	68127.88
859.003	68216.88
859.248	68079.88
859.493	67783.88
859.739	67699.88
859.984	67444.88
860.229	66998.88
860.474	66736.88
860.719	66591.88
860.964	66141.88
861.209	65815.88
861.454	65272.88
861.699	64902.88
861.943	64448.88
862.188	64371.88
862.433	63909.88
862.678	63769.88
862.922	63736.88
863.167	63597.88
863.411	63600.88
863.656	63128.88
863.9	63141.88
864.145	62906.88
864.389	62731.88
864.634	62402.88
864.878	62092.88
865.122	61842.88
865.366	61602.88
865.61	61551.88
865.855	61574.88
866.099	61466.88
866.343	61343.88
866.587	61104.88
866.831	61179.88
867.074	61315.88
867.318	61253.88
867.562	61079.88
867.806	61158.88
868.05	60897.88
868.293	60895.88
868.537	60658.88
868.78	60399.88
869.024	60123.88
869.267	59592.88
869.511	59210.88
869.754	59037.88
869.998	58394.88
870.241	57721.88
870.484	57259.88
870.728	57170.88
870.971	56683.88
871.214	56427.88
871.457	56336.88
871.7	56302.88
871.943	56468.88
872.186	56521.88
872.429	56630.88
872.672	56533.88
872.915	56214.88
873.158	56330.88
873.4	56325.88
873.643	56180.88
873.886	55822.88
874.128	55816.88
874.371	55365.88
874.613	55570.88
874.856	55458.88
875.098	55042.88
875.341	54950.88
875.583	54949.88
875.825	54614.88
876.068	54330.88
876.31	54000.88
876.552	53477.88
876.794	53128.88
877.036	52655.88
877.278	52303.88
877.52	52230.88
877.762	51876.88
878.004	51660.88
878.246	51494.88
878.488	51672.88
878.73	51513.88
878.972	51335.88
879.213	51374.88
879.455	51412.88
879.697	51363.88
879.938	51243.88
880.18	50817.88
880.421	50690.88
880.663	50767.88
880.904	50756.88
881.145	50730.88
881.387	50853.88
881.628	50957.88
881.869	50741.88
882.11	50517.88
882.352	50249.88
882.593	50061.88
882.834	49946.88
883.075	49985.88
883.316	49711.88
883.557	49582.88
883.797	49279.88
884.038	48921.88
884.279	48439.88
884.52	47894.88
884.761	47418.88
885.001	47242.88
885.242	46593.88
885.482	46379.88
885.723	46136.88
885.963	45874.88
886.204	45804.88
886.444	45842.88
886.685	45612.88
886.925	45355.88
887.165	45183.88
887.405	44755.88
887.646	44704.88
887.886	44721.88
888.126	44559.88
888.366	44653.88
888.606	44443.88
888.846	44667.88
889.086	44863.88
889.326	44742.88
889.565	44768.88
889.805	44511.88
890.045	44533.88
890.285	44601.88
890.524	44420.88
890.764	44169.88
891.003	43833.88
891.243	43332.88
891.482	42980.88
891.722	42817.88
891.961	42486.88
892.201	42169.88
892.44	41983.88
892.679	41637.88
892.918	41690.88
893.158	41389.88
893.397	41474.88
893.636	41288.88
893.875	41167.88
894.114	41053.88
894.353	40829.88
894.592	40594.88
894.831	40458.88
895.069	40324.88
895.308	40038.88
895.547	39738.88
895.786	39535.88
896.024	39615.88
896.263	39490.88
896.501	39411.88
896.74	39332.88
896.978	39213.88
897.217	39164.88
897.455	39066.88
897.694	38816.88
897.932	38743.88
898.17	38732.88
898.408	38459.88
898.646	38421.88
898.885	38287.88
899.123	38147.88
899.361	37883.88
899.599	37662.88
899.837	37472.88
900.075	37162.88
900.312	36848.88
900.55	36650.88
900.788	36247.88
901.026	35784.88
901.263	35635.88
901.501	35365.88
901.739	35358.88
901.976	35101.88
902.214	34904.88
902.451	34765.88
902.689	34633.88
902.926	34698.88
903.163	34739.88
903.401	34663.88
903.638	34746.88
903.875	34694.88
904.112	34547.88
904.349	34481.88
904.586	34395.88
904.823	34310.88
905.06	34172.88
905.297	33936.88
905.534	33534.88
905.771	33333.88
906.008	33247.88
906.245	32847.88
906.481	32792.88
906.718	32634.88
906.955	32378.88
907.191	32214.88
907.428	32070.88
907.664	32123.88
907.901	32057.88
908.137	31852.88
908.374	31784.88
908.61	31554.88
908.846	31422.88
909.083	31129.88
909.319	30994.88
909.555	30910.88
909.791	30554.88
910.027	30418.88
910.263	30151.88
910.499	30090.88
910.735	29742.88
910.971	29630.88
911.207	29372.88
911.443	29133.88
911.678	29050.88
911.914	29085.88
912.15	28946.88
912.385	28921.88
912.621	28817.88
912.857	28846.88
913.092	28716.88
913.328	28682.88
913.563	28612.88
913.798	28611.88
914.034	28665.88
914.269	28529.88
914.504	28496.88
914.739	28322.88
914.975	28278.88
915.21	28088.88
915.445	27879.88
915.68	27634.88
915.915	27347.88
916.15	27158.88
916.384	26733.88
916.619	26422.88
916.854	26268.88
917.089	26119.88
917.324	25921.88
917.558	25827.88
917.793	25678.88
918.028	25626.88
918.262	25539.88
918.497	25600.88
918.731	25508.88
918.965	25376.88
919.2	25353.88
919.434	25282.88
919.668	25412.88
919.903	25239.88
920.137	25023.88
920.371	24927.88
920.605	24772.88
920.839	24669.88
921.073	24460.88
921.307	24233.88
921.541	24121.88
921.775	24028.88
922.009	23968.88
922.243	23942.88
922.476	23861.88
922.71	24021.88
922.944	23757.88
923.177	23717.88
923.411	23746.88
923.644	23785.88
923.878	23560.88
924.111	23568.88
924.345	23394.88
924.578	23242.88
924.811	23151.88
925.045	23009.88
925.278	22903.88
925.511	22732.88
925.744	22622.88
925.977	22426.88
926.21	22334.88
926.443	22062.88
926.676	21872.88
926.909	21783.88
927.142	21548.88
927.375	21448.88
927.608	21353.88
927.841	21178.88
928.073	21106.88
928.306	21008.88
928.539	21137.88
928.771	21071.88
929.004	21123.88
929.236	20873.88
929.469	20958.88
929.701	21005.88
929.933	20899.88
930.166	21004.88
930.398	20933.88
930.63	20905.88
930.862	20824.88
931.094	20711.88
931.327	20701.88
931.559	20517.88
931.791	20380.88
932.023	20142.88
932.255	20051.88
932.486	20014.88
932.718	19744.88
932.95	19621.88
933.182	19602.88
933.413	19469.88
933.645	19400.88
933.877	19424.88
934.108	19397.88
934.34	19151.88
934.571	19058.88
934.803	19001.88
935.034	18978.88
935.265	18915.88
935.497	18881.88
935.728	18776.88
935.959	18680.88
936.19	18645.88
936.422	18551.88
936.653	18467.88
936.884	18345.88
937.115	18179.88
937.346	18218.88
937.577	17971.88
937.807	17796.88
938.038	17790.88
938.269	17820.88
938.5	17784.88
938.73	17716.88
938.961	17733.88
939.192	17680.88
939.422	17638.88
939.653	17677.88
939.883	17646.88
940.114	17542.88
940.344	17554.88
940.574	17368.88
940.805	17404.88
941.035	17275.88
941.265	17222.88
941.495	16998.88
941.726	16947.88
941.956	16817.88
942.186	16658.88
942.416	16545.88
942.646	16514.88
942.876	16320.88
943.105	16201.88
943.335	16001.88
943.565	15930.88
943.795	15814.88
944.024	15662.88
944.254	15610.88
944.484	15563.88
944.713	15496.88
944.943	15418.88
945.172	15318.88
945.402	15184.88
945.631	15228.88
945.86	15202.88
946.09	15150.88
946.319	15206.88
946.548	15095.88
946.777	15115.88
947.006	15098.88
947.235	15067.88
947.465	14904.88
947.694	14800.88
947.922	14757.88
948.151	14674.88
948.38	14509.88
948.609	14408.88
948.838	14327.88
949.067	14269.88
949.295	14164.88
949.524	14037.88
949.752	13993.88
949.981	13912.88
950.21	13789.88
950.438	13803.88
950.666	13627.88
950.895	13536.88
951.123	13517.88
951.351	13429.88
951.58	13399.88
951.808	13232.88
952.036	13151.88
952.264	13126.88
952.492	13051.88
952.72	13043.88
952.948	12951.88
953.176	12929.88
953.404	12784.88
953.632	12694.88
953.86	12596.88
954.088	12503.88
954.315	12369.88
954.543	12425.88
954.771	12292.88
954.998	12200.88
955.226	12181.88
955.453	12036.88
955.681	12052.88
955.908	12042.88
956.135	12043.88
956.363	11992.88
956.59	11972.88
956.817	11859.88
957.045	11886.88
957.272	11855.88
957.499	11818.88
957.726	11694.88
957.953	11678.88
958.18	11679.88
958.407	11518.88
958.634	11489.88
958.861	11381.88
959.087	11344.88
959.314	11273.88
959.541	11201.88
959.767	11171.88
959.994	11009.88
960.221	10928.88
960.447	10824.88
960.674	10756.88
960.9	10666.88
961.127	10663.88
961.353	10599.88
961.579	10478.88
961.806	10409.88
962.032	10386.88
962.258	10362.88
962.484	10316.88
962.71	10229.88
962.936	10280.88
963.162	10232.88
963.388	10135.88
963.614	10193.88
963.84	10096.88
964.066	10092.88
964.292	10031.88
964.518	10070.88
964.743	9982.88
964.969	9946.88
965.195	9994.88
965.42	9889.88
965.646	9847.88
965.871	9725.88
966.097	9726.88
966.322	9738.88
966.547	9600.88
966.773	9647.88
966.998	9513.88
967.223	9485.88
967.448	9430.88
967.674	9360.88
967.899	9345.88
968.124	9268.88
968.349	9246.88
968.574	9177.88
968.799	9090.88
969.024	9064.88
969.248	8995.88
969.473	8923.88
969.698	8893.88
969.923	8892.88
970.147	8807.88
970.372	8763.88
970.596	8667.88
970.821	8576.88
971.046	8555.88
971.27	8577.88
971.494	8537.88
971.719	8394.88
971.943	8353.88
972.167	8315.88
972.392	8251.88
972.616	8195.88
972.84	8142.88
973.064	8136.88
973.288	8069.88
973.512	8156.88
973.736	8045.88
973.96	7994.88
974.184	7964.88
974.408	7971.88
974.631	7938.88
974.855	7956.88
975.079	7885.88
975.303	7784.88
975.526	7873.88
975.75	7845.88
975.973	7759.88
976.197	7716.88
976.42	7596.88
976.644	7632.88
976.867	7602.88
977.09	7575.88
977.313	7475.88
977.537	7423.88
977.76	7371.88
977.983	7375.88
978.206	7228.88
978.429	7277.88
978.652	7173.88
978.875	7140.88
979.098	7048.88
979.321	7044.88
979.544	6967.88
979.767	6990.88
979.989	6896.88
980.212	6880.88
980.435	6767.88
980.657	6747.88
980.88	6780.88
981.102	6685.88
981.325	6614.88
981.547	6707.88
981.77	6625.88
981.992	6617.88
982.214	6560.88
982.437	6543.88
982.659	6503.88
982.881	6430.88
983.103	6455.88
983.325	6450.88
983.547	6386.88
983.769	6393.88
983.991	6338.88
984.213	6270.88
984.435	6261.88
984.657	6221.88
984.879	6168.88
985.1	6177.88
985.322	6209.88
985.544	6184.88
985.765	6119.88
985.987	6071.88
986.208	6082.88
986.43	5976.88
986.651	5998.88
986.873	5952.88
987.094	5877.88
987.315	5846.88
987.536	5788.88
987.758	5802.88
987.979	5733.88
988.2	5703.88
988.421	5704.88
988.642	5617.88
988.863	5593.88
989.084	5533.88
989.305	5525.88
989.526	5502.88
989.747	5445.88
989.967	5467.88
990.188	5406.88
990.409	5343.88
990.629	5328.88
990.85	5300.88
991.071	5272.88
991.291	5243.88
991.512	5191.88
991.732	5135.88
991.952	5150.88
992.173	5180.88
992.393	5103.88
992.613	5025.88
992.834	5117.88
993.054	5044.88
993.274	5008.88
993.494	5069.88
993.714	5010.88
993.934	4999.88
994.154	4972.88
994.374	4970.88
994.594	4901.88
994.813	4855.88
995.033	4882.88
995.253	4839.88
995.473	4861.88
995.692	4748.88
995.912	4772.88
996.131	4730.88
996.351	4719.88
996.57	4626.88
996.79	4663.88
997.009	4583.88
997.228	4568.88
997.448	4529.88
997.667	4478.88
997.886	4418.88
998.105	4393.88
998.325	4322.88
998.544	4346.88
998.763	4293.88
998.982	4281.88
999.201	4270.88
999.419	4146.88
999.638	4226.88
999.857	4149.88
1000.076	4217.88
1000.295	4113.88
1000.513	4147.88
1000.732	4098.88
1000.95	4085.88
1001.169	4133.88
1001.388	4088.88
1001.606	4016.88
1001.824	3997.88
1002.043	3989.88
1002.261	3984.88
1002.479	3980.88
1002.698	3986.88
1002.916	3949.88
1003.134	3935.88
1003.352	3912.88
1003.57	3894.88
1003.788	3883.88
1004.006	3799.88
1004.224	3821.88
1004.442	3815.88
1004.66	3801.88
1004.878	3803.88
1005.095	3774.88
1005.313	3745.88
1005.531	3712.88
1005.748	3683.88
1005.966	3805.88
1006.184	3637.88
1006.401	3678.88
1006.618	3614.88
1006.836	3641.88
1007.053	3617.88
1007.271	3622.88
1007.488	3567.88
1007.705	3614.88
1007.922	3561.88
1008.139	3540.88
1008.357	3550.88
1008.574	3584.88
1008.791	3608.88
1009.008	3636.88
1009.225	3603.88
1009.441	3673.88
1009.658	3683.88
1009.875	3615.88
1010.092	3627.88
1010.309	3615.88
1010.525	3568.88
1010.742	3526.88
1010.958	3475.88
1011.175	3441.88
1011.391	3469.88
1011.608	3403.88
1011.824	3376.88
1012.041	3338.88
1012.257	3345.88
1012.473	3299.88
1012.689	3270.88
1012.906	3285.88
1013.122	3254.88
1013.338	3243.88
1013.554	3224.88
1013.77	3247.88
1013.986	3205.88
1014.202	3276.88
1014.418	3337.88
1014.634	3333.88
1014.849	3395.88
1015.065	3456.88
1015.281	3419.88
1015.496	3422.88
1015.712	3364.88
1015.928	3362.88
1016.143	3245.88
1016.359	3233.88
1016.574	3179.88
1016.79	3115.88
1017.005	3035.88
1017.22	2975.88
1017.435	2889.88
1017.651	2886.88
1017.866	2814.88
1018.081	2761.88
1018.296	2732.88
1018.511	2729.88
1018.726	2686.88
1018.941	2629.88
1019.156	2623.88
1019.371	2604.88
1019.586	2599.88
1019.801	2598.88
1020.015	2575.88
1020.23	2542.88
1020.445	2513.88
1020.659	2486.88
1020.874	2487.88
1021.088	2452.88
1021.303	2377.88
1021.517	2364.88
1021.732	2352.88
1021.946	2297.88
1022.16	2326.88
1022.375	2256.88
1022.589	2264.88
1022.803	2188.88
1023.017	2168.88
1023.231	2139.88
1023.445	2096.88
1023.659	2042.88
1023.873	2016.88
1024.087	1976.88
1024.301	1928.88
1024.515	1919.88
1024.729	1867.88
1024.942	1811.88
1025.156	1833.88
1025.37	1774.88
1025.583	1762.88
1025.797	1686.88
1026.01	1673.88
1026.224	1619.88
1026.437	1607.88
1026.651	1557.88
1026.864	1472.88
1027.077	1508.88
1027.291	1437.88
1027.504	1380.88
1027.717	1354.88
1027.93	1314.88
1028.143	1282.88
1028.356	1259.88
1028.569	1164.88
1028.782	1121.88
1028.995	-0.12
1029.208	-0.12
1029.421	-0.12
1029.634	-2.12
