Data from QEP037381__264__15-26-31-550.txt Node

Date: Mon Mar 14 15:26:31 EDT 2022
User: dcclab
Spectrometer: QEP03738
Trigger mode: 4
Integration Time (sec): 2.500000E0
Scans to average: 1
Electric dark correction enabled: true
Nonlinearity correction enabled: false
Boxcar width: 0
XAxis mode: Wavelengths
Number of Pixels in Spectrum: 1044
>>>>>Begin Spectral Data<<<<<
783.959	13
784.218	0
784.476	-2
784.734	-5
784.992	258
785.251	242
785.509	253
785.767	236
786.025	250
786.283	241
786.541	244
786.798	248
787.056	239
787.314	220
787.572	244
787.83	221
788.087	244
788.345	226
788.602	238
788.86	237
789.117	238
789.375	233
789.632	237
789.89	236
790.147	251
790.404	242
790.661	240
790.919	268
791.176	256
791.433	247
791.69	266
791.947	274
792.204	260
792.461	267
792.718	279
792.974	285
793.231	288
793.488	306
793.745	312
794.001	327
794.258	353
794.514	341
794.771	372
795.027	371
795.284	398
795.54	425
795.797	437
796.053	480
796.309	510
796.565	563
796.822	607
797.078	706
797.334	800
797.59	926
797.846	1168
798.102	1514
798.358	2043
798.614	2880
798.869	4152
799.125	6144
799.381	8929
799.637	12637
799.892	17152
800.148	22103
800.403	27039
800.659	31165
800.914	34354
801.17	36636
801.425	38080
801.68	39093
801.936	40133
802.191	40999
802.446	41890
802.701	42924
802.957	43882
803.212	44909
803.467	45639
803.722	46646
803.977	47646
804.232	48612
804.486	49602
804.741	50418
804.996	51540
805.251	52559
805.505	53242
805.76	54291
806.015	55117
806.269	55967
806.524	56649
806.778	57284
807.033	57762
807.287	58425
807.541	59331
807.796	60169
808.05	60872
808.304	61525
808.558	61930
808.812	62282
809.066	62691
809.32	63375
809.574	63577
809.828	64314
810.082	64819
810.336	65375
810.59	66009
810.844	66916
811.097	67920
811.351	68986
811.605	69891
811.858	71082
812.112	72319
812.365	73445
812.619	74694
812.872	75802
813.126	76894
813.379	77731
813.632	79004
813.885	79922
814.139	81143
814.392	82451
814.645	83852
814.898	85526
815.151	87025
815.404	88866
815.657	90282
815.91	91642
816.163	92937
816.416	94010
816.668	94618
816.921	95185
817.174	95553
817.426	95568
817.679	95521
817.931	95720
818.184	95815
818.436	95800
818.689	95738
818.941	95929
819.194	96472
819.446	97083
819.698	97554
819.95	97809
820.202	98325
820.455	98793
820.707	99082
820.959	99012
821.211	99262
821.462	99026
821.714	98857
821.966	98574
822.218	98485
822.47	97815
822.722	97526
822.973	97505
823.225	96803
823.476	96998
823.728	96935
823.979	96815
824.231	96996
824.482	97143
824.734	97219
824.985	97116
825.236	97312
825.487	97200
825.739	96768
825.99	96498
826.241	96278
826.492	95545
826.743	95057
826.994	94730
827.245	94584
827.496	94531
827.747	94258
827.997	94270
828.248	94420
828.499	94770
828.75	94518
829	94894
829.251	94701
829.501	94398
829.752	94400
830.002	93864
830.253	93228
830.503	92780
830.753	92423
831.004	91603
831.254	91387
831.504	91298
831.754	91130
832.004	91118
832.254	91385
832.504	91202
832.754	91134
833.004	91162
833.254	90734
833.504	90624
833.754	90540
834.003	90494
834.253	90122
834.503	89713
834.752	89080
835.002	88532
835.252	88109
835.501	87881
835.75	87629
836	87572
836.249	87525
836.499	87374
836.748	87427
836.997	87423
837.246	87500
837.495	88021
837.744	88264
837.993	88787
838.242	89289
838.491	89164
838.74	87737
838.989	86935
839.238	86191
839.487	85591
839.736	85056
839.984	84495
840.233	84146
840.482	83793
840.73	83717
840.979	83365
841.227	83258
841.476	82712
841.724	82438
841.972	82417
842.221	82368
842.469	81892
842.717	81374
842.965	81314
843.213	81070
843.461	80964
843.71	80417
843.958	80066
844.205	80033
844.453	79827
844.701	79957
844.949	79812
845.197	79612
845.445	79688
845.692	79730
845.94	79854
846.188	79847
846.435	80077
846.683	79721
846.93	79303
847.178	78990
847.425	78261
847.672	77607
847.92	76934
848.167	76605
848.414	75842
848.661	75245
848.908	75052
849.155	74570
849.402	74545
849.649	74867
849.896	75084
850.143	75492
850.39	75790
850.637	75587
850.884	75522
851.131	75642
851.377	75151
851.624	75023
851.87	74874
852.117	74626
852.364	74175
852.61	73829
852.856	73628
853.103	73300
853.349	72873
853.595	72627
853.842	72268
854.088	72168
854.334	72275
854.58	72113
854.826	71556
855.072	71569
855.318	70766
855.564	70154
855.81	69608
856.056	69104
856.302	68571
856.548	67994
856.793	67816
857.039	67334
857.285	67057
857.53	67024
857.776	67139
858.021	67224
858.267	67564
858.512	67636
858.758	67709
859.003	67953
859.248	67948
859.493	67851
859.739	67479
859.984	67284
860.229	67199
860.474	66624
860.719	66573
860.964	65872
861.209	65507
861.454	65217
861.699	64670
861.943	64431
862.188	64186
862.433	63854
862.678	63628
862.922	63540
863.167	63487
863.411	63425
863.656	63130
863.9	63055
864.145	62691
864.389	62291
864.634	62261
864.878	62133
865.122	61848
865.366	61625
865.61	61583
865.855	61373
866.099	61269
866.343	61170
866.587	61124
866.831	60990
867.074	61033
867.318	61175
867.562	60878
867.806	60972
868.05	60693
868.293	60740
868.537	60445
868.78	60378
869.024	59847
869.267	59383
869.511	59139
869.754	58831
869.998	58191
870.241	57453
870.484	57191
870.728	56954
870.971	56594
871.214	56315
871.457	56261
871.7	56068
871.943	56183
872.186	56405
872.429	56427
872.672	56322
872.915	56203
873.158	56299
873.4	56114
873.643	56033
873.886	55787
874.128	55529
874.371	55426
874.613	55446
874.856	55161
875.098	54909
875.341	54833
875.583	54554
875.825	54529
876.068	54298
876.31	53979
876.552	53547
876.794	52974
877.036	52420
877.278	52194
877.52	52028
877.762	51760
878.004	51641
878.246	51514
878.488	51468
878.73	51402
878.972	51178
879.213	51273
879.455	51160
879.697	51173
879.938	51008
880.18	50796
880.421	50631
880.663	50750
880.904	50652
881.145	50684
881.387	50711
881.628	50933
881.869	50506
882.11	50437
882.352	50141
882.593	49991
882.834	49846
883.075	49790
883.316	49578
883.557	49516
883.797	49090
884.038	48829
884.279	48246
884.52	47717
884.761	47346
885.001	47083
885.242	46517
885.482	46397
885.723	46118
885.963	45944
886.204	45730
886.444	45531
886.685	45281
886.925	45105
887.165	45035
887.405	44741
887.646	44590
887.886	44549
888.126	44521
888.366	44498
888.606	44531
888.846	44604
889.086	44454
889.326	44576
889.565	44604
889.805	44684
890.045	44528
890.285	44451
890.524	44295
890.764	44149
891.003	43751
891.243	43335
891.482	42887
891.722	42684
891.961	42253
892.201	42086
892.44	41808
892.679	41784
892.918	41498
893.158	41505
893.397	41155
893.636	41174
893.875	41210
894.114	40825
894.353	40671
894.592	40514
894.831	40405
895.069	40095
895.308	39814
895.547	39722
895.786	39554
896.024	39514
896.263	39376
896.501	39233
896.74	39231
896.978	39085
897.217	38889
897.455	38954
897.694	38769
897.932	38751
898.17	38489
898.408	38538
898.646	38264
898.885	38282
899.123	37983
899.361	37740
899.599	37551
899.837	37347
900.075	37163
900.312	36850
900.55	36373
900.788	36079
901.026	35803
901.263	35645
901.501	35273
901.739	35107
901.976	34875
902.214	34755
902.451	34646
902.689	34619
902.926	34711
903.163	34488
903.401	34442
903.638	34621
903.875	34487
904.112	34460
904.349	34382
904.586	34273
904.823	34198
905.06	34075
905.297	33754
905.534	33432
905.771	33301
906.008	33050
906.245	32874
906.481	32702
906.718	32539
906.955	32348
907.191	32253
907.428	32036
907.664	31881
907.901	31836
908.137	31642
908.374	31507
908.61	31462
908.846	31420
909.083	31054
909.319	30971
909.555	30791
909.791	30650
910.027	30312
910.263	30120
910.499	29969
910.735	29627
910.971	29415
911.207	29460
911.443	29151
911.678	29026
911.914	28900
912.15	28873
912.385	28870
912.621	28793
912.857	28747
913.092	28714
913.328	28614
913.563	28563
913.798	28562
914.034	28581
914.269	28386
914.504	28350
914.739	28326
914.975	28208
915.21	28025
915.445	27810
915.68	27528
915.915	27163
916.15	26976
916.384	26689
916.619	26372
916.854	26187
917.089	26093
917.324	25832
917.558	25745
917.793	25567
918.028	25515
918.262	25452
918.497	25495
918.731	25355
918.965	25369
919.2	25300
919.434	25344
919.668	25346
919.903	25161
920.137	25065
920.371	24825
920.605	24830
920.839	24679
921.073	24425
921.307	24225
921.541	24177
921.775	23973
922.009	23811
922.243	23810
922.476	23760
922.71	23713
922.944	23704
923.177	23684
923.411	23669
923.644	23573
923.878	23395
924.111	23378
924.345	23379
924.578	23187
924.811	23156
925.045	22951
925.278	22824
925.511	22675
925.744	22529
925.977	22368
926.21	22260
926.443	21953
926.676	21776
926.909	21603
927.142	21565
927.375	21399
927.608	21236
927.841	21196
928.073	21099
928.306	21022
928.539	21010
928.771	21091
929.004	20957
929.236	20911
929.469	20949
929.701	20974
929.933	20989
930.166	20980
930.398	20862
930.63	20841
930.862	20853
931.094	20640
931.327	20635
931.559	20333
931.791	20320
932.023	20266
932.255	20033
932.486	19813
932.718	19677
932.95	19694
933.182	19539
933.413	19344
933.645	19274
933.877	19325
934.108	19224
934.34	19192
934.571	19061
934.803	19038
935.034	18891
935.265	18833
935.497	18837
935.728	18659
935.959	18709
936.19	18537
936.422	18523
936.653	18420
936.884	18217
937.115	18241
937.346	18108
937.577	17928
937.807	17786
938.038	17697
938.269	17861
938.5	17719
938.73	17681
938.961	17630
939.192	17628
939.422	17668
939.653	17531
939.883	17594
940.114	17520
940.344	17537
940.574	17307
940.805	17334
941.035	17123
941.265	17171
941.495	16979
941.726	16844
941.956	16795
942.186	16654
942.416	16421
942.646	16335
942.876	16340
943.105	16123
943.335	16048
943.565	15979
943.795	15760
944.024	15654
944.254	15502
944.484	15471
944.713	15370
944.943	15315
945.172	15197
945.402	15193
945.631	15124
945.86	15152
946.09	15181
946.319	15157
946.548	15097
946.777	15053
947.006	15033
947.235	14876
947.465	14898
947.694	14765
947.922	14813
948.151	14615
948.38	14488
948.609	14346
948.838	14232
949.067	14140
949.295	14084
949.524	14015
949.752	13902
949.981	13900
950.21	13757
950.438	13703
950.666	13629
950.895	13454
951.123	13434
951.351	13332
951.58	13336
951.808	13263
952.036	13107
952.264	13178
952.492	13064
952.72	13001
952.948	12921
953.176	12838
953.404	12734
953.632	12579
953.86	12568
954.088	12425
954.315	12308
954.543	12265
954.771	12227
954.998	12143
955.226	12088
955.453	12043
955.681	11996
955.908	11958
956.135	11921
956.363	11945
956.59	11888
956.817	11910
957.045	11770
957.272	11740
957.499	11755
957.726	11679
957.953	11629
958.18	11561
958.407	11511
958.634	11491
958.861	11410
959.087	11267
959.314	11254
959.541	11159
959.767	11129
959.994	11000
960.221	10904
960.447	10844
960.674	10708
960.9	10588
961.127	10623
961.353	10557
961.579	10411
961.806	10438
962.032	10331
962.258	10213
962.484	10290
962.71	10249
962.936	10171
963.162	10174
963.388	10190
963.614	10072
963.84	10107
964.066	10084
964.292	9996
964.518	9947
964.743	9996
964.969	9912
965.195	9908
965.42	9875
965.646	9819
965.871	9756
966.097	9644
966.322	9600
966.547	9614
966.773	9472
966.998	9532
967.223	9430
967.448	9389
967.674	9290
967.899	9248
968.124	9148
968.349	9124
968.574	9079
968.799	9075
969.024	8979
969.248	8977
969.473	8891
969.698	8907
969.923	8841
970.147	8785
970.372	8687
970.596	8637
970.821	8693
971.046	8589
971.27	8530
971.494	8450
971.719	8397
971.943	8291
972.167	8277
972.392	8225
972.616	8214
972.84	8151
973.064	8122
973.288	8098
973.512	7989
973.736	8036
973.96	8007
974.184	7990
974.408	8018
974.631	7905
974.855	7841
975.079	7876
975.303	7815
975.526	7777
975.75	7738
975.973	7772
976.197	7677
976.42	7672
976.644	7588
976.867	7511
977.09	7473
977.313	7455
977.537	7342
977.76	7366
977.983	7270
978.206	7186
978.429	7222
978.652	7132
978.875	7125
979.098	7083
979.321	7027
979.544	6966
979.767	6918
979.989	6873
980.212	6847
980.435	6778
980.657	6774
980.88	6816
981.102	6701
981.325	6682
981.547	6605
981.77	6602
981.992	6523
982.214	6563
982.437	6494
982.659	6472
982.881	6459
983.103	6461
983.325	6423
983.547	6375
983.769	6361
983.991	6303
984.213	6339
984.435	6303
984.657	6243
984.879	6184
985.1	6189
985.322	6112
985.544	6109
985.765	6053
985.987	6024
986.208	6019
986.43	5998
986.651	5982
986.873	5930
987.094	5876
987.315	5839
987.536	5808
987.758	5816
987.979	5706
988.2	5718
988.421	5642
988.642	5655
988.863	5608
989.084	5492
989.305	5498
989.526	5462
989.747	5439
989.967	5442
990.188	5398
990.409	5313
990.629	5347
990.85	5258
991.071	5200
991.291	5232
991.512	5168
991.732	5133
991.952	5171
992.173	5069
992.393	5089
992.613	5053
992.834	5111
993.054	5026
993.274	5042
993.494	4996
993.714	5004
993.934	5015
994.154	4968
994.374	4949
994.594	4906
994.813	4873
995.033	4894
995.253	4879
995.473	4830
995.692	4744
995.912	4747
996.131	4769
996.351	4662
996.57	4636
996.79	4598
997.009	4542
997.228	4489
997.448	4537
997.667	4484
997.886	4427
998.105	4409
998.325	4382
998.544	4274
998.763	4266
998.982	4227
999.201	4263
999.419	4187
999.638	4213
999.857	4158
1000.076	4124
1000.295	4069
1000.513	4172
1000.732	4114
1000.95	4074
1001.169	4093
1001.388	4058
1001.606	4020
1001.824	4025
1002.043	4003
1002.261	3971
1002.479	3995
1002.698	3978
1002.916	3915
1003.134	3915
1003.352	3921
1003.57	3853
1003.788	3857
1004.006	3837
1004.224	3846
1004.442	3787
1004.66	3764
1004.878	3768
1005.095	3763
1005.313	3754
1005.531	3712
1005.748	3691
1005.966	3766
1006.184	3666
1006.401	3697
1006.618	3618
1006.836	3622
1007.053	3643
1007.271	3599
1007.488	3589
1007.705	3563
1007.922	3584
1008.139	3578
1008.357	3540
1008.574	3583
1008.791	3542
1009.008	3652
1009.225	3600
1009.441	3649
1009.658	3654
1009.875	3649
1010.092	3602
1010.309	3602
1010.525	3534
1010.742	3519
1010.958	3499
1011.175	3490
1011.391	3430
1011.608	3378
1011.824	3367
1012.041	3346
1012.257	3319
1012.473	3269
1012.689	3280
1012.906	3216
1013.122	3287
1013.338	3210
1013.554	3228
1013.77	3226
1013.986	3259
1014.202	3244
1014.418	3296
1014.634	3396
1014.849	3389
1015.065	3411
1015.281	3443
1015.496	3369
1015.712	3373
1015.928	3318
1016.143	3259
1016.359	3223
1016.574	3152
1016.79	3097
1017.005	3009
1017.22	2916
1017.435	2875
1017.651	2885
1017.866	2796
1018.081	2790
1018.296	2717
1018.511	2702
1018.726	2680
1018.941	2647
1019.156	2630
1019.371	2615
1019.586	2602
1019.801	2576
1020.015	2549
1020.23	2545
1020.445	2490
1020.659	2505
1020.874	2494
1021.088	2422
1021.303	2405
1021.517	2374
1021.732	2345
1021.946	2326
1022.16	2292
1022.375	2246
1022.589	2220
1022.803	2182
1023.017	2142
1023.231	2138
1023.445	2111
1023.659	2018
1023.873	2004
1024.087	1933
1024.301	1905
1024.515	1889
1024.729	1878
1024.942	1827
1025.156	1832
1025.37	1778
1025.583	1751
1025.797	1674
1026.01	1671
1026.224	1617
1026.437	1576
1026.651	1562
1026.864	1489
1027.077	1473
1027.291	1427
1027.504	1396
1027.717	1363
1027.93	1328
1028.143	1290
1028.356	1239
1028.569	1156
1028.782	1121
1028.995	0
1029.208	-4
1029.421	0
1029.634	-2
