Data from QEP037381__258__15-26-16-550.txt Node

Date: Mon Mar 14 15:26:16 EDT 2022
User: dcclab
Spectrometer: QEP03738
Trigger mode: 4
Integration Time (sec): 2.500000E0
Scans to average: 1
Electric dark correction enabled: true
Nonlinearity correction enabled: false
Boxcar width: 0
XAxis mode: Wavelengths
Number of Pixels in Spectrum: 1044
>>>>>Begin Spectral Data<<<<<
783.959	11
784.218	1
784.476	1
784.734	-2
784.992	255
785.251	252
785.509	247
785.767	232
786.025	232
786.283	251
786.541	228
786.798	237
787.056	235
787.314	224
787.572	233
787.83	213
788.087	235
788.345	233
788.602	228
788.86	236
789.117	244
789.375	227
789.632	235
789.89	224
790.147	247
790.404	246
790.661	237
790.919	259
791.176	243
791.433	256
791.69	264
791.947	263
792.204	244
792.461	280
792.718	282
792.974	279
793.231	286
793.488	324
793.745	305
794.001	325
794.258	344
794.514	344
794.771	364
795.027	371
795.284	388
795.54	433
795.797	430
796.053	476
796.309	519
796.565	547
796.822	615
797.078	692
797.334	791
797.59	953
797.846	1161
798.102	1510
798.358	1981
798.614	2827
798.869	4106
799.125	6108
799.381	8866
799.637	12587
799.892	16960
800.148	21999
800.403	26841
800.659	30862
800.914	34183
801.17	36242
801.425	37877
801.68	38842
801.936	39904
802.191	40943
802.446	41750
802.701	42675
802.957	43436
803.212	44495
803.467	45559
803.722	46425
803.977	47440
804.232	48092
804.486	49323
804.741	50102
804.996	51277
805.251	52310
805.505	53034
805.76	53962
806.015	54708
806.269	55475
806.524	56410
806.778	56963
807.033	57443
807.287	58245
807.541	58979
807.796	59962
808.05	60544
808.304	61042
808.558	61548
808.812	61982
809.066	62573
809.32	63004
809.574	63653
809.828	63848
810.082	64426
810.336	64907
810.59	65879
810.844	66368
811.097	67363
811.351	68501
811.605	69377
811.858	70854
812.112	71823
812.365	73077
812.619	74387
812.872	75350
813.126	76486
813.379	77541
813.632	78542
813.885	79590
814.139	80971
814.392	82047
814.645	83522
814.898	85001
815.151	86536
815.404	88170
815.657	89871
815.91	91019
816.163	92434
816.416	93416
816.668	94167
816.921	94688
817.174	94938
817.426	95079
817.679	95190
817.931	94804
818.184	95207
818.436	95254
818.689	95403
818.941	95367
819.194	95891
819.446	96316
819.698	96931
819.95	97433
820.202	97877
820.455	98294
820.707	98701
820.959	98450
821.211	98525
821.462	98589
821.714	98603
821.966	98292
822.218	97653
822.47	97422
822.722	97031
822.973	96753
823.225	96601
823.476	96311
823.728	96443
823.979	96366
824.231	96354
824.482	96702
824.734	97020
824.985	96793
825.236	96732
825.487	96458
825.739	96163
825.99	95961
826.241	95545
826.492	95501
826.743	94809
826.994	94360
827.245	93992
827.496	93884
827.747	93951
827.997	93920
828.248	93872
828.499	94053
828.75	94364
829	94209
829.251	94386
829.501	94357
829.752	93811
830.002	93492
830.253	93109
830.503	92426
830.753	91762
831.004	91305
831.254	90928
831.504	90898
831.754	90772
832.004	90489
832.254	90679
832.504	90822
832.754	90834
833.004	90516
833.254	90571
833.504	90222
833.754	90120
834.003	89876
834.253	89654
834.503	89047
834.752	88493
835.002	88310
835.252	87831
835.501	87696
835.75	87263
836	87192
836.249	87029
836.499	87101
836.748	86969
836.997	86889
837.246	87265
837.495	87243
837.744	87998
837.993	88309
838.242	88740
838.491	88615
838.74	87837
838.989	86534
839.238	86120
839.487	85127
839.736	84651
839.984	84349
840.233	83844
840.482	83404
840.73	83062
840.979	82943
841.227	82937
841.476	82450
841.724	82156
841.972	81791
842.221	81829
842.469	81705
842.717	81255
842.965	80909
843.213	80683
843.461	80523
843.71	80094
843.958	79773
844.205	79859
844.453	79603
844.701	79530
844.949	79569
845.197	79224
845.445	79274
845.692	79325
845.94	79607
846.188	79779
846.435	79547
846.683	79520
846.93	79172
847.178	78501
847.425	78012
847.672	77467
847.92	76842
848.167	76339
848.414	75626
848.661	75178
848.908	74704
849.155	74340
849.402	74405
849.649	74468
849.896	74688
850.143	75017
850.39	75308
850.637	75415
850.884	75252
851.131	75252
851.377	75027
851.624	74954
851.87	74457
852.117	74269
852.364	73924
852.61	73648
852.856	73409
853.103	73044
853.349	72611
853.595	72521
853.842	72146
854.088	71963
854.334	71996
854.58	72051
854.826	71432
855.072	70986
855.318	70485
855.564	69714
855.81	69215
856.056	68891
856.302	68244
856.548	67733
856.793	67642
857.039	67194
857.285	66878
857.53	66888
857.776	67070
858.021	67452
858.267	67462
858.512	67526
858.758	67654
859.003	67823
859.248	67779
859.493	67484
859.739	67415
859.984	67381
860.229	66959
860.474	66474
860.719	66279
860.964	65866
861.209	65328
861.454	65066
861.699	64670
861.943	64274
862.188	64028
862.433	63659
862.678	63490
862.922	63549
863.167	63199
863.411	63159
863.656	63035
863.9	62833
864.145	62603
864.389	62351
864.634	62153
864.878	61903
865.122	61547
865.366	61451
865.61	61395
865.855	61185
866.099	61207
866.343	61178
866.587	60895
866.831	60867
867.074	61018
867.318	61000
867.562	60734
867.806	60824
868.05	60449
868.293	60404
868.537	60443
868.78	60123
869.024	59753
869.267	59207
869.511	58898
869.754	58516
869.998	58189
870.241	57353
870.484	57090
870.728	56935
870.971	56348
871.214	56219
871.457	56168
871.7	56096
871.943	55914
872.186	56239
872.429	56189
872.672	56330
872.915	56254
873.158	56019
873.4	55981
873.643	55896
873.886	55809
874.128	55333
874.371	55257
874.613	55311
874.856	54949
875.098	54953
875.341	54758
875.583	54569
875.825	54468
876.068	54181
876.31	53791
876.552	53463
876.794	52953
877.036	52531
877.278	52041
877.52	51869
877.762	51799
878.004	51382
878.246	51259
878.488	51266
878.73	51327
878.972	51184
879.213	51094
879.455	51076
879.697	51033
879.938	50837
880.18	50612
880.421	50597
880.663	50435
880.904	50488
881.145	50514
881.387	50600
881.628	50736
881.869	50518
882.11	50314
882.352	50028
882.593	50045
882.834	49712
883.075	49646
883.316	49620
883.557	49312
883.797	49296
884.038	48740
884.279	48237
884.52	47626
884.761	47359
885.001	47025
885.242	46514
885.482	46234
885.723	46063
885.963	45748
886.204	45608
886.444	45451
886.685	45353
886.925	45022
887.165	44824
887.405	44605
887.646	44625
887.886	44509
888.126	44509
888.366	44311
888.606	44412
888.846	44509
889.086	44573
889.326	44430
889.565	44488
889.805	44581
890.045	44590
890.285	44374
890.524	44301
890.764	43917
891.003	43696
891.243	43278
891.482	42893
891.722	42480
891.961	42109
892.201	41875
892.44	41817
892.679	41618
892.918	41517
893.158	41392
893.397	41158
893.636	41146
893.875	41018
894.114	40652
894.353	40711
894.592	40532
894.831	40422
895.069	40061
895.308	39727
895.547	39612
895.786	39285
896.024	39263
896.263	39145
896.501	39127
896.74	38990
896.978	39079
897.217	38891
897.455	38958
897.694	38811
897.932	38739
898.17	38518
898.408	38458
898.646	38414
898.885	38100
899.123	38018
899.361	37564
899.599	37429
899.837	37283
900.075	36975
900.312	36663
900.55	36464
900.788	36129
901.026	35779
901.263	35509
901.501	35295
901.739	35103
901.976	34928
902.214	34831
902.451	34579
902.689	34645
902.926	34510
903.163	34533
903.401	34538
903.638	34564
903.875	34571
904.112	34573
904.349	34450
904.586	34241
904.823	34204
905.06	33921
905.297	33874
905.534	33411
905.771	33297
906.008	33001
906.245	32895
906.481	32532
906.718	32343
906.955	32291
907.191	32217
907.428	31991
907.664	31994
907.901	31815
908.137	31602
908.374	31540
908.61	31452
908.846	31156
909.083	31196
909.319	30916
909.555	30715
909.791	30480
910.027	30342
910.263	30106
910.499	29842
910.735	29653
910.971	29379
911.207	29263
911.443	29182
911.678	29011
911.914	28869
912.15	28809
912.385	28844
912.621	28710
912.857	28599
913.092	28709
913.328	28536
913.563	28584
913.798	28510
914.034	28540
914.269	28365
914.504	28302
914.739	28351
914.975	28143
915.21	27944
915.445	27703
915.68	27410
915.915	27286
916.15	26939
916.384	26611
916.619	26345
916.854	26249
917.089	25842
917.324	25868
917.558	25600
917.793	25606
918.028	25451
918.262	25478
918.497	25296
918.731	25320
918.965	25284
919.2	25252
919.434	25279
919.668	25202
919.903	25142
920.137	25068
920.371	24848
920.605	24795
920.839	24630
921.073	24383
921.307	24278
921.541	24058
921.775	23943
922.009	23787
922.243	23685
922.476	23758
922.71	23750
922.944	23736
923.177	23706
923.411	23647
923.644	23551
923.878	23522
924.111	23374
924.345	23417
924.578	23182
924.811	23049
925.045	23017
925.278	22785
925.511	22745
925.744	22409
925.977	22218
926.21	22169
926.443	21915
926.676	21728
926.909	21620
927.142	21556
927.375	21448
927.608	21165
927.841	21119
928.073	21102
928.306	20967
928.539	20988
928.771	20936
929.004	20899
929.236	20972
929.469	20964
929.701	20943
929.933	20952
930.166	20901
930.398	20893
930.63	20920
930.862	20859
931.094	20649
931.327	20590
931.559	20409
931.791	20305
932.023	20061
932.255	20038
932.486	19835
932.718	19627
932.95	19523
933.182	19499
933.413	19436
933.645	19397
933.877	19337
934.108	19137
934.34	19165
934.571	19097
934.803	18927
935.034	18897
935.265	18735
935.497	18852
935.728	18690
935.959	18515
936.19	18558
936.422	18409
936.653	18277
936.884	18306
937.115	18217
937.346	18010
937.577	18008
937.807	17901
938.038	17813
938.269	17773
938.5	17737
938.73	17693
938.961	17586
939.192	17665
939.422	17639
939.653	17611
939.883	17487
940.114	17479
940.344	17508
940.574	17336
940.805	17253
941.035	17159
941.265	17054
941.495	16987
941.726	16761
941.956	16651
942.186	16647
942.416	16434
942.646	16307
942.876	16209
943.105	16119
943.335	15994
943.565	15880
943.795	15821
944.024	15686
944.254	15545
944.484	15463
944.713	15438
944.943	15333
945.172	15295
945.402	15201
945.631	15223
945.86	15062
946.09	15078
946.319	15073
946.548	15091
946.777	15049
947.006	14945
947.235	14996
947.465	14995
947.694	14738
947.922	14669
948.151	14666
948.38	14479
948.609	14372
948.838	14282
949.067	14230
949.295	14138
949.524	14013
949.752	13902
949.981	13920
950.21	13819
950.438	13706
950.666	13656
950.895	13494
951.123	13372
951.351	13359
951.58	13262
951.808	13249
952.036	13140
952.264	13092
952.492	13044
952.72	13037
952.948	12918
953.176	12835
953.404	12733
953.632	12619
953.86	12507
954.088	12461
954.315	12364
954.543	12325
954.771	12206
954.998	12124
955.226	12070
955.453	12043
955.681	12002
955.908	12019
956.135	11979
956.363	11877
956.59	11879
956.817	11866
957.045	11820
957.272	11782
957.499	11784
957.726	11612
957.953	11651
958.18	11621
958.407	11501
958.634	11466
958.861	11315
959.087	11281
959.314	11243
959.541	11156
959.767	11047
959.994	10975
960.221	10981
960.447	10835
960.674	10785
960.9	10709
961.127	10608
961.353	10514
961.579	10452
961.806	10425
962.032	10327
962.258	10351
962.484	10278
962.71	10253
962.936	10167
963.162	10155
963.388	10156
963.614	10136
963.84	10056
964.066	10075
964.292	9964
964.518	10044
964.743	9984
964.969	9959
965.195	9875
965.42	9807
965.646	9776
965.871	9718
966.097	9703
966.322	9646
966.547	9590
966.773	9597
966.998	9522
967.223	9501
967.448	9397
967.674	9283
967.899	9279
968.124	9221
968.349	9166
968.574	9122
968.799	9056
969.024	9023
969.248	8880
969.473	8996
969.698	8869
969.923	8796
970.147	8793
970.372	8731
970.596	8657
970.821	8613
971.046	8539
971.27	8594
971.494	8491
971.719	8464
971.943	8380
972.167	8298
972.392	8203
972.616	8176
972.84	8135
973.064	8168
973.288	8158
973.512	8020
973.736	7998
973.96	8022
974.184	7996
974.408	7903
974.631	7831
974.855	7918
975.079	7865
975.303	7796
975.526	7759
975.75	7759
975.973	7714
976.197	7701
976.42	7595
976.644	7611
976.867	7578
977.09	7503
977.313	7444
977.537	7421
977.76	7327
977.983	7413
978.206	7267
978.429	7212
978.652	7139
978.875	7139
979.098	7003
979.321	7025
979.544	6950
979.767	6917
979.989	6885
980.212	6885
980.435	6757
980.657	6694
980.88	6757
981.102	6699
981.325	6625
981.547	6646
981.77	6569
981.992	6597
982.214	6560
982.437	6534
982.659	6487
982.881	6441
983.103	6420
983.325	6388
983.547	6416
983.769	6323
983.991	6296
984.213	6278
984.435	6327
984.657	6229
984.879	6190
985.1	6157
985.322	6147
985.544	6109
985.765	6053
985.987	6034
986.208	6078
986.43	5997
986.651	5925
986.873	5927
987.094	5863
987.315	5874
987.536	5836
987.758	5755
987.979	5708
988.2	5726
988.421	5677
988.642	5578
988.863	5581
989.084	5539
989.305	5534
989.526	5494
989.747	5434
989.967	5402
990.188	5400
990.409	5332
990.629	5308
990.85	5290
991.071	5251
991.291	5267
991.512	5215
991.732	5206
991.952	5139
992.173	5152
992.393	5105
992.613	5041
992.834	5084
993.054	5013
993.274	5027
993.494	5007
993.714	5077
993.934	4993
994.154	4975
994.374	4950
994.594	4902
994.813	4919
995.033	4871
995.253	4825
995.473	4852
995.692	4752
995.912	4751
996.131	4745
996.351	4709
996.57	4683
996.79	4585
997.009	4552
997.228	4590
997.448	4522
997.667	4430
997.886	4385
998.105	4401
998.325	4323
998.544	4310
998.763	4285
998.982	4236
999.201	4193
999.419	4186
999.638	4164
999.857	4133
1000.076	4140
1000.295	4134
1000.513	4162
1000.732	4110
1000.95	4053
1001.169	4093
1001.388	4041
1001.606	4033
1001.824	4025
1002.043	3984
1002.261	3967
1002.479	3963
1002.698	3962
1002.916	3934
1003.134	3892
1003.352	3903
1003.57	3868
1003.788	3814
1004.006	3860
1004.224	3836
1004.442	3780
1004.66	3800
1004.878	3748
1005.095	3745
1005.313	3774
1005.531	3669
1005.748	3656
1005.966	3767
1006.184	3655
1006.401	3643
1006.618	3592
1006.836	3595
1007.053	3609
1007.271	3604
1007.488	3570
1007.705	3595
1007.922	3585
1008.139	3547
1008.357	3525
1008.574	3560
1008.791	3586
1009.008	3632
1009.225	3576
1009.441	3630
1009.658	3600
1009.875	3638
1010.092	3598
1010.309	3611
1010.525	3554
1010.742	3564
1010.958	3497
1011.175	3463
1011.391	3433
1011.608	3411
1011.824	3350
1012.041	3323
1012.257	3332
1012.473	3283
1012.689	3247
1012.906	3247
1013.122	3242
1013.338	3216
1013.554	3252
1013.77	3225
1013.986	3237
1014.202	3281
1014.418	3277
1014.634	3373
1014.849	3414
1015.065	3416
1015.281	3376
1015.496	3378
1015.712	3396
1015.928	3349
1016.143	3264
1016.359	3201
1016.574	3154
1016.79	3124
1017.005	3009
1017.22	2930
1017.435	2888
1017.651	2854
1017.866	2816
1018.081	2774
1018.296	2704
1018.511	2677
1018.726	2669
1018.941	2659
1019.156	2598
1019.371	2650
1019.586	2599
1019.801	2565
1020.015	2577
1020.23	2610
1020.445	2511
1020.659	2502
1020.874	2487
1021.088	2433
1021.303	2376
1021.517	2343
1021.732	2344
1021.946	2296
1022.16	2294
1022.375	2252
1022.589	2238
1022.803	2179
1023.017	2150
1023.231	2118
1023.445	2092
1023.659	2026
1023.873	1989
1024.087	1956
1024.301	1921
1024.515	1907
1024.729	1865
1024.942	1810
1025.156	1828
1025.37	1805
1025.583	1728
1025.797	1672
1026.01	1706
1026.224	1627
1026.437	1600
1026.651	1524
1026.864	1496
1027.077	1455
1027.291	1456
1027.504	1417
1027.717	1355
1027.93	1336
1028.143	1273
1028.356	1235
1028.569	1176
1028.782	1094
1028.995	-2
1029.208	-2
1029.421	-3
1029.634	-4
