Data from QEP037381__255__15-26-09-053.txt Node

Date: Mon Mar 14 15:26:09 EDT 2022
User: dcclab
Spectrometer: QEP03738
Trigger mode: 4
Integration Time (sec): 2.500000E0
Scans to average: 1
Electric dark correction enabled: true
Nonlinearity correction enabled: false
Boxcar width: 0
XAxis mode: Wavelengths
Number of Pixels in Spectrum: 1044
>>>>>Begin Spectral Data<<<<<
783.959	13
784.218	2
784.476	-2
784.734	0
784.992	264
785.251	254
785.509	242
785.767	240
786.025	253
786.283	248
786.541	242
786.798	244
787.056	244
787.314	225
787.572	230
787.83	232
788.087	243
788.345	240
788.602	231
788.86	246
789.117	240
789.375	232
789.632	240
789.89	237
790.147	254
790.404	251
790.661	256
790.919	273
791.176	260
791.433	256
791.69	273
791.947	271
792.204	253
792.461	285
792.718	292
792.974	291
793.231	296
793.488	334
793.745	321
794.001	337
794.258	373
794.514	357
794.771	374
795.027	388
795.284	412
795.54	431
795.797	467
796.053	492
796.309	526
796.565	563
796.822	634
797.078	706
797.334	828
797.59	969
797.846	1219
798.102	1546
798.358	2047
798.614	2985
798.869	4344
799.125	6430
799.381	9271
799.637	13030
799.892	17818
800.148	22867
800.403	27695
800.659	31942
800.914	35431
801.17	37700
801.425	39238
801.68	40429
801.936	41504
802.191	42215
802.446	43396
802.701	44125
802.957	45227
803.212	46031
803.467	47038
803.722	48025
803.977	49044
804.232	49865
804.486	50909
804.741	51856
804.996	52893
805.251	53866
805.505	54771
805.76	55620
806.015	56606
806.269	57300
806.524	58166
806.778	58544
807.033	59215
807.287	59807
807.541	60565
807.796	61403
808.05	62281
808.304	62912
808.558	63255
808.812	63756
809.066	64148
809.32	64734
809.574	65453
809.828	65843
810.082	66223
810.336	66939
810.59	67593
810.844	68322
811.097	69277
811.351	70472
811.605	71476
811.858	72616
812.112	73832
812.365	75162
812.619	76268
812.872	77420
813.126	78578
813.379	79351
813.632	80557
813.885	81754
814.139	82829
814.392	84322
814.645	85603
814.898	87179
815.151	88799
815.404	90498
815.657	92084
815.91	93426
816.163	94631
816.416	95768
816.668	96548
816.921	96712
817.174	97296
817.426	97561
817.679	97450
817.931	97209
818.184	97614
818.436	97433
818.689	97771
818.941	97900
819.194	98129
819.446	98671
819.698	99081
819.95	99621
820.202	100189
820.455	100660
820.707	101112
820.959	100835
821.211	101074
821.462	100694
821.714	100883
821.966	100567
822.218	100055
822.47	99537
822.722	99358
822.973	99186
823.225	98999
823.476	98966
823.728	98801
823.979	98741
824.231	98898
824.482	98870
824.734	99207
824.985	99240
825.236	99453
825.487	99142
825.739	98802
825.99	98343
826.241	98211
826.492	97773
826.743	97089
826.994	96698
827.245	96615
827.496	96381
827.747	96264
827.997	96425
828.248	96403
828.499	96546
828.75	96515
829	96684
829.251	96741
829.501	96521
829.752	96024
830.002	95903
830.253	95108
830.503	94959
830.753	94638
831.004	93666
831.254	93503
831.504	93291
831.754	93152
832.004	92900
832.254	93188
832.504	93113
832.754	93215
833.004	93143
833.254	93149
833.504	92903
833.754	92701
834.003	92415
834.253	92126
834.503	91663
834.752	91112
835.002	90687
835.252	90409
835.501	89849
835.75	89954
836	89559
836.249	89494
836.499	89475
836.748	89497
836.997	89452
837.246	89709
837.495	90057
837.744	90468
837.993	90924
838.242	90910
838.491	90771
838.74	90089
838.989	89002
839.238	88434
839.487	87851
839.736	87203
839.984	86714
840.233	86335
840.482	85861
840.73	85692
840.979	85256
841.227	84968
841.476	84742
841.724	84779
841.972	84673
842.221	84295
842.469	84098
842.717	83689
842.965	83435
843.213	83169
843.461	82966
843.71	82583
843.958	82312
844.205	82230
844.453	82111
844.701	82015
844.949	81945
845.197	81719
845.445	81842
845.692	81999
845.94	81982
846.188	82086
846.435	82317
846.683	82135
846.93	81624
847.178	81103
847.425	80711
847.672	79958
847.92	79432
848.167	78765
848.414	77774
848.661	77624
848.908	77094
849.155	76755
849.402	76797
849.649	76879
849.896	77173
850.143	77566
850.39	77767
850.637	77980
850.884	77758
851.131	77658
851.377	77514
851.624	77343
851.87	77035
852.117	76570
852.364	76476
852.61	76049
852.856	75871
853.103	75469
853.349	75126
853.595	75039
853.842	74584
854.088	74215
854.334	74498
854.58	74348
854.826	73891
855.072	73553
855.318	72820
855.564	72170
855.81	71672
856.056	71306
856.302	70726
856.548	70119
856.793	69924
857.039	69425
857.285	69351
857.53	69315
857.776	69232
858.021	69584
858.267	69868
858.512	69977
858.758	70164
859.003	70444
859.248	70238
859.493	70162
859.739	69722
859.984	69739
860.229	69190
860.474	68933
860.719	68578
860.964	68202
861.209	67865
861.454	67299
861.699	67072
861.943	66524
862.188	66303
862.433	66280
862.678	65835
862.922	65819
863.167	65818
863.411	65478
863.656	65428
863.9	65030
864.145	64905
864.389	64606
864.634	64601
864.878	64070
865.122	63948
865.366	63810
865.61	63514
865.855	63590
866.099	63693
866.343	63491
866.587	63183
866.831	63230
867.074	63282
867.318	62983
867.562	63028
867.806	63106
868.05	62896
868.293	62807
868.537	62443
868.78	62531
869.024	62200
869.267	61720
869.511	61192
869.754	60892
869.998	60263
870.241	59806
870.484	59247
870.728	58996
870.971	58774
871.214	58425
871.457	58442
871.7	58062
871.943	58309
872.186	58420
872.429	58584
872.672	58708
872.915	58506
873.158	58240
873.4	58264
873.643	58264
873.886	57964
874.128	57634
874.371	57548
874.613	57502
874.856	57386
875.098	57153
875.341	57065
875.583	56879
875.825	56715
876.068	56192
876.31	55965
876.552	55497
876.794	55091
877.036	54536
877.278	54325
877.52	54052
877.762	53848
878.004	53491
878.246	53510
878.488	53342
878.73	53347
878.972	53350
879.213	53337
879.455	53293
879.697	52985
879.938	53132
880.18	52867
880.421	52541
880.663	52410
880.904	52525
881.145	52656
881.387	52615
881.628	52751
881.869	52539
882.11	52345
882.352	52165
882.593	51951
882.834	51991
883.075	51811
883.316	51491
883.557	51372
883.797	51259
884.038	50786
884.279	50176
884.52	49636
884.761	49275
885.001	49021
885.242	48479
885.482	48329
885.723	47996
885.963	47910
886.204	47730
886.444	47459
886.685	47299
886.925	47075
887.165	46932
887.405	46541
887.646	46558
887.886	46317
888.126	46316
888.366	46400
888.606	46407
888.846	46468
889.086	46561
889.326	46429
889.565	46493
889.805	46485
890.045	46356
890.285	46304
890.524	46097
890.764	45975
891.003	45730
891.243	45007
891.482	44745
891.722	44276
891.961	43940
892.201	43763
892.44	43720
892.679	43491
892.918	43275
893.158	43073
893.397	43024
893.636	42694
893.875	42769
894.114	42656
894.353	42399
894.592	42232
894.831	42252
895.069	41794
895.308	41489
895.547	41242
895.786	41032
896.024	41096
896.263	40917
896.501	40992
896.74	40878
896.978	40706
897.217	40659
897.455	40486
897.694	40426
897.932	40230
898.17	40184
898.408	40166
898.646	40022
898.885	39750
899.123	39620
899.361	39363
899.599	39010
899.837	38851
900.075	38634
900.312	38259
900.55	37813
900.788	37779
901.026	37344
901.263	37148
901.501	36853
901.739	36716
901.976	36466
902.214	36297
902.451	36269
902.689	36187
902.926	36040
903.163	35933
903.401	36041
903.638	36134
903.875	35964
904.112	35972
904.349	35924
904.586	35744
904.823	35759
905.06	35400
905.297	35192
905.534	34906
905.771	34650
906.008	34462
906.245	34284
906.481	34134
906.718	33936
906.955	33763
907.191	33554
907.428	33383
907.664	33259
907.901	33308
908.137	33173
908.374	33066
908.61	32871
908.846	32727
909.083	32569
909.319	32310
909.555	32138
909.791	31854
910.027	31771
910.263	31468
910.499	31177
910.735	30976
910.971	30769
911.207	30725
911.443	30520
911.678	30136
911.914	30218
912.15	30320
912.385	30038
912.621	30010
912.857	30054
913.092	29920
913.328	29864
913.563	29865
913.798	30001
914.034	29767
914.269	29579
914.504	29573
914.739	29592
914.975	29378
915.21	29183
915.445	29051
915.68	28752
915.915	28434
916.15	28138
916.384	27959
916.619	27443
916.854	27299
917.089	27244
917.324	27035
917.558	26907
917.793	26771
918.028	26662
918.262	26629
918.497	26605
918.731	26577
918.965	26466
919.2	26508
919.434	26308
919.668	26422
919.903	26319
920.137	26230
920.371	26022
920.605	25994
920.839	25785
921.073	25498
921.307	25429
921.541	25241
921.775	25080
922.009	25018
922.243	24879
922.476	24986
922.71	24827
922.944	24759
923.177	24881
923.411	24653
923.644	24749
923.878	24560
924.111	24483
924.345	24470
924.578	24391
924.811	24206
925.045	23993
925.278	23889
925.511	23765
925.744	23543
925.977	23377
926.21	23164
926.443	23037
926.676	22805
926.909	22595
927.142	22487
927.375	22290
927.608	22219
927.841	22077
928.073	22009
928.306	21959
928.539	21950
928.771	22079
929.004	21919
929.236	21883
929.469	21970
929.701	21964
929.933	21998
930.166	21881
930.398	21963
930.63	21877
930.862	21761
931.094	21624
931.327	21617
931.559	21384
931.791	21177
932.023	21164
932.255	21046
932.486	20862
932.718	20657
932.95	20584
933.182	20419
933.413	20352
933.645	20273
933.877	20185
934.108	20070
934.34	19970
934.571	20086
934.803	19872
935.034	19801
935.265	19769
935.497	19736
935.728	19522
935.959	19449
936.19	19493
936.422	19295
936.653	19228
936.884	19191
937.115	19116
937.346	18966
937.577	18737
937.807	18775
938.038	18679
938.269	18571
938.5	18583
938.73	18539
938.961	18513
939.192	18586
939.422	18493
939.653	18419
939.883	18500
940.114	18381
940.344	18285
940.574	18256
940.805	18102
941.035	18062
941.265	17953
941.495	17747
941.726	17715
941.956	17560
942.186	17431
942.416	17278
942.646	17191
942.876	17087
943.105	16914
943.335	16874
943.565	16681
943.795	16565
944.024	16504
944.254	16365
944.484	16305
944.713	16186
944.943	15982
945.172	16101
945.402	15955
945.631	16026
945.86	15917
946.09	15929
946.319	15878
946.548	15833
946.777	15817
947.006	15746
947.235	15704
947.465	15696
947.694	15567
947.922	15403
948.151	15324
948.38	15282
948.609	15161
948.838	15077
949.067	14862
949.295	14797
949.524	14721
949.752	14639
949.981	14572
950.21	14510
950.438	14455
950.666	14295
950.895	14144
951.123	14138
951.351	13984
951.58	13966
951.808	13964
952.036	13833
952.264	13810
952.492	13742
952.72	13660
952.948	13629
953.176	13503
953.404	13400
953.632	13209
953.86	13217
954.088	13108
954.315	13040
954.543	12913
954.771	12872
954.998	12793
955.226	12822
955.453	12687
955.681	12611
955.908	12565
956.135	12529
956.363	12549
956.59	12526
956.817	12545
957.045	12500
957.272	12416
957.499	12357
957.726	12270
957.953	12294
958.18	12225
958.407	12093
958.634	12074
958.861	12010
959.087	11904
959.314	11807
959.541	11699
959.767	11706
959.994	11539
960.221	11516
960.447	11372
960.674	11284
960.9	11268
961.127	11129
961.353	10973
961.579	11032
961.806	11010
962.032	10892
962.258	10800
962.484	10880
962.71	10782
962.936	10773
963.162	10755
963.388	10719
963.614	10691
963.84	10643
964.066	10635
964.292	10557
964.518	10568
964.743	10487
964.969	10442
965.195	10376
965.42	10367
965.646	10278
965.871	10278
966.097	10295
966.322	10072
966.547	10137
966.773	10140
966.998	10022
967.223	9953
967.448	9914
967.674	9804
967.899	9776
968.124	9751
968.349	9735
968.574	9593
968.799	9596
969.024	9520
969.248	9478
969.473	9358
969.698	9317
969.923	9214
970.147	9320
970.372	9143
970.596	9171
970.821	9103
971.046	9071
971.27	8971
971.494	8981
971.719	8861
971.943	8850
972.167	8679
972.392	8685
972.616	8632
972.84	8634
973.064	8585
973.288	8562
973.512	8490
973.736	8464
973.96	8438
974.184	8407
974.408	8311
974.631	8307
974.855	8314
975.079	8259
975.303	8247
975.526	8193
975.75	8148
975.973	8134
976.197	8062
976.42	7972
976.644	8067
976.867	7994
977.09	7994
977.313	7891
977.537	7753
977.76	7714
977.983	7714
978.206	7677
978.429	7579
978.652	7546
978.875	7506
979.098	7430
979.321	7435
979.544	7372
979.767	7302
979.989	7289
980.212	7267
980.435	7181
980.657	7124
980.88	7163
981.102	7036
981.325	7085
981.547	6988
981.77	6982
981.992	6991
982.214	6919
982.437	6844
982.659	6878
982.881	6869
983.103	6771
983.325	6796
983.547	6794
983.769	6701
983.991	6702
984.213	6610
984.435	6591
984.657	6557
984.879	6515
985.1	6479
985.322	6478
985.544	6485
985.765	6433
985.987	6404
986.208	6404
986.43	6394
986.651	6310
986.873	6227
987.094	6221
987.315	6124
987.536	6110
987.758	6058
987.979	6024
988.2	6045
988.421	5966
988.642	5979
988.863	5898
989.084	5862
989.305	5861
989.526	5784
989.747	5745
989.967	5744
990.188	5678
990.409	5642
990.629	5656
990.85	5578
991.071	5512
991.291	5492
991.512	5414
991.732	5449
991.952	5403
992.173	5399
992.393	5399
992.613	5343
992.834	5354
993.054	5323
993.274	5259
993.494	5280
993.714	5224
993.934	5251
994.154	5261
994.374	5208
994.594	5180
994.813	5146
995.033	5146
995.253	5127
995.473	5082
995.692	5040
995.912	5010
996.131	4964
996.351	4902
996.57	4911
996.79	4851
997.009	4805
997.228	4804
997.448	4708
997.667	4729
997.886	4648
998.105	4647
998.325	4568
998.544	4596
998.763	4510
998.982	4475
999.201	4469
999.419	4430
999.638	4437
999.857	4392
1000.076	4429
1000.295	4336
1000.513	4364
1000.732	4368
1000.95	4247
1001.169	4309
1001.388	4253
1001.606	4279
1001.824	4212
1002.043	4209
1002.261	4207
1002.479	4199
1002.698	4127
1002.916	4120
1003.134	4112
1003.352	4118
1003.57	4068
1003.788	4068
1004.006	4035
1004.224	4028
1004.442	3981
1004.66	3996
1004.878	3950
1005.095	3907
1005.313	3937
1005.531	3949
1005.748	3885
1005.966	3962
1006.184	3833
1006.401	3848
1006.618	3828
1006.836	3763
1007.053	3776
1007.271	3789
1007.488	3741
1007.705	3749
1007.922	3742
1008.139	3703
1008.357	3767
1008.574	3752
1008.791	3755
1009.008	3783
1009.225	3776
1009.441	3752
1009.658	3766
1009.875	3783
1010.092	3775
1010.309	3750
1010.525	3743
1010.742	3672
1010.958	3606
1011.175	3568
1011.391	3535
1011.608	3580
1011.824	3484
1012.041	3455
1012.257	3462
1012.473	3419
1012.689	3427
1012.906	3379
1013.122	3391
1013.338	3343
1013.554	3369
1013.77	3364
1013.986	3311
1014.202	3344
1014.418	3413
1014.634	3443
1014.849	3504
1015.065	3502
1015.281	3526
1015.496	3509
1015.712	3445
1015.928	3360
1016.143	3343
1016.359	3300
1016.574	3263
1016.79	3191
1017.005	3153
1017.22	3047
1017.435	3007
1017.651	2947
1017.866	2932
1018.081	2893
1018.296	2833
1018.511	2809
1018.726	2757
1018.941	2751
1019.156	2713
1019.371	2714
1019.586	2702
1019.801	2693
1020.015	2639
1020.23	2655
1020.445	2580
1020.659	2574
1020.874	2567
1021.088	2505
1021.303	2496
1021.517	2436
1021.732	2425
1021.946	2393
1022.16	2396
1022.375	2362
1022.589	2316
1022.803	2289
1023.017	2203
1023.231	2218
1023.445	2181
1023.659	2115
1023.873	2065
1024.087	2031
1024.301	1993
1024.515	1975
1024.729	1999
1024.942	1907
1025.156	1916
1025.37	1874
1025.583	1836
1025.797	1768
1026.01	1754
1026.224	1686
1026.437	1665
1026.651	1613
1026.864	1551
1027.077	1580
1027.291	1516
1027.504	1487
1027.717	1437
1027.93	1359
1028.143	1326
1028.356	1314
1028.569	1238
1028.782	1162
1028.995	-2
1029.208	-3
1029.421	-5
1029.634	-3
