Data from QEP037381__243__15-25-39-048.txt Node

Date: Mon Mar 14 15:25:39 EDT 2022
User: dcclab
Spectrometer: QEP03738
Trigger mode: 4
Integration Time (sec): 2.500000E0
Scans to average: 1
Electric dark correction enabled: true
Nonlinearity correction enabled: false
Boxcar width: 0
XAxis mode: Wavelengths
Number of Pixels in Spectrum: 1044
>>>>>Begin Spectral Data<<<<<
783.959	14.25
784.218	-1.75
784.476	-1.75
784.734	-3.75
784.992	260.25
785.251	240.25
785.509	230.25
785.767	232.25
786.025	237.25
786.283	238.25
786.541	228.25
786.798	239.25
787.056	240.25
787.314	217.25
787.572	242.25
787.83	220.25
788.087	239.25
788.345	226.25
788.602	227.25
788.86	239.25
789.117	232.25
789.375	220.25
789.632	228.25
789.89	214.25
790.147	244.25
790.404	244.25
790.661	247.25
790.919	255.25
791.176	248.25
791.433	266.25
791.69	269.25
791.947	272.25
792.204	248.25
792.461	281.25
792.718	281.25
792.974	280.25
793.231	285.25
793.488	315.25
793.745	308.25
794.001	312.25
794.258	339.25
794.514	347.25
794.771	370.25
795.027	370.25
795.284	389.25
795.54	413.25
795.797	424.25
796.053	478.25
796.309	510.25
796.565	549.25
796.822	608.25
797.078	675.25
797.334	784.25
797.59	924.25
797.846	1161.25
798.102	1491.25
798.358	2004.25
798.614	2807.25
798.869	4050.25
799.125	6013.25
799.381	8756.25
799.637	12388.25
799.892	16867.25
800.148	21727.25
800.403	26492.25
800.659	30587.25
800.914	33932.25
801.17	36063.25
801.425	37549.25
801.68	38589.25
801.936	39476.25
802.191	40398.25
802.446	41391.25
802.701	42457.25
802.957	43222.25
803.212	44137.25
803.467	45060.25
803.722	45911.25
803.977	46950.25
804.232	47881.25
804.486	48882.25
804.741	49801.25
804.996	50750.25
805.251	51595.25
805.505	52730.25
805.76	53534.25
806.015	54311.25
806.269	55032.25
806.524	55817.25
806.778	56350.25
807.033	56979.25
807.287	57533.25
807.541	58452.25
807.796	59415.25
808.05	59985.25
808.304	60780.25
808.558	60998.25
808.812	61336.25
809.066	62082.25
809.32	62435.25
809.574	62891.25
809.828	63402.25
810.082	63849.25
810.336	64461.25
810.59	65094.25
810.844	65932.25
811.097	66735.25
811.351	67816.25
811.605	68909.25
811.858	69958.25
812.112	71056.25
812.365	72447.25
812.619	73629.25
812.872	74620.25
813.126	75709.25
813.379	76779.25
813.632	77889.25
813.885	78874.25
814.139	80212.25
814.392	81348.25
814.645	82593.25
814.898	84302.25
815.151	85823.25
815.404	87555.25
815.657	89054.25
815.91	90516.25
816.163	91538.25
816.416	92715.25
816.668	93383.25
816.921	93860.25
817.174	94169.25
817.426	94395.25
817.679	94197.25
817.931	94214.25
818.184	94429.25
818.436	94461.25
818.689	94529.25
818.941	94874.25
819.194	95189.25
819.446	95629.25
819.698	96179.25
819.95	96508.25
820.202	96942.25
820.455	97496.25
820.707	97690.25
820.959	97724.25
821.211	97911.25
821.462	97692.25
821.714	97668.25
821.966	97455.25
822.218	96898.25
822.47	96420.25
822.722	96156.25
822.973	96096.25
823.225	95824.25
823.476	95535.25
823.728	95557.25
823.979	95565.25
824.231	95444.25
824.482	95670.25
824.734	96019.25
824.985	95833.25
825.236	95791.25
825.487	95908.25
825.739	95333.25
825.99	95104.25
826.241	94924.25
826.492	94279.25
826.743	94043.25
826.994	93491.25
827.245	93275.25
827.496	93100.25
827.747	93040.25
827.997	93228.25
828.248	93329.25
828.499	93282.25
828.75	93451.25
829	93462.25
829.251	93481.25
829.501	93295.25
829.752	92821.25
830.002	92593.25
830.253	91945.25
830.503	91703.25
830.753	91167.25
831.004	90445.25
831.254	90122.25
831.504	90159.25
831.754	89806.25
832.004	89698.25
832.254	90019.25
832.504	90041.25
832.754	89908.25
833.004	89872.25
833.254	89922.25
833.504	89803.25
833.754	89434.25
834.003	89035.25
834.253	88771.25
834.503	88302.25
834.752	88010.25
835.002	87426.25
835.252	87062.25
835.501	86689.25
835.75	86839.25
836	86508.25
836.249	86256.25
836.499	86216.25
836.748	86286.25
836.997	86230.25
837.246	86468.25
837.495	86995.25
837.744	87424.25
837.993	87424.25
838.242	87801.25
838.491	87772.25
838.74	86994.25
838.989	85887.25
839.238	85267.25
839.487	84651.25
839.736	84074.25
839.984	83442.25
840.233	83191.25
840.482	82684.25
840.73	82437.25
840.979	82266.25
841.227	82044.25
841.476	81650.25
841.724	81422.25
841.972	81347.25
842.221	81129.25
842.469	81050.25
842.717	80472.25
842.965	80087.25
843.213	80220.25
843.461	79966.25
843.71	79433.25
843.958	79016.25
844.205	79049.25
844.453	79021.25
844.701	78918.25
844.949	78895.25
845.197	78589.25
845.445	78774.25
845.692	78839.25
845.94	78936.25
846.188	78990.25
846.435	78947.25
846.683	78804.25
846.93	78503.25
847.178	78039.25
847.425	77469.25
847.672	77074.25
847.92	76220.25
848.167	75695.25
848.414	74862.25
848.661	74201.25
848.908	73896.25
849.155	73780.25
849.402	73742.25
849.649	73897.25
849.896	74002.25
850.143	74687.25
850.39	75077.25
850.637	74798.25
850.884	74571.25
851.131	74641.25
851.377	74418.25
851.624	74121.25
851.87	74080.25
852.117	73738.25
852.364	73315.25
852.61	72970.25
852.856	72821.25
853.103	72311.25
853.349	72111.25
853.595	71865.25
853.842	71371.25
854.088	71428.25
854.334	71494.25
854.58	71388.25
854.826	70805.25
855.072	70501.25
855.318	69820.25
855.564	69463.25
855.81	68643.25
856.056	68518.25
856.302	67845.25
856.548	67153.25
856.793	67002.25
857.039	66443.25
857.285	66307.25
857.53	66257.25
857.776	66591.25
858.021	66755.25
858.267	66878.25
858.512	66906.25
858.758	67160.25
859.003	67264.25
859.248	67081.25
859.493	67100.25
859.739	66872.25
859.984	66677.25
860.229	66277.25
860.474	65919.25
860.719	65469.25
860.964	65177.25
861.209	64845.25
861.454	64381.25
861.699	63971.25
861.943	63661.25
862.188	63406.25
862.433	63081.25
862.678	62862.25
862.922	62965.25
863.167	62767.25
863.411	62573.25
863.656	62416.25
863.9	62315.25
864.145	62130.25
864.389	61734.25
864.634	61655.25
864.878	61330.25
865.122	61158.25
865.366	60992.25
865.61	60824.25
865.855	60777.25
866.099	60619.25
866.343	60799.25
866.587	60443.25
866.831	60359.25
867.074	60431.25
867.318	60346.25
867.562	60243.25
867.806	60254.25
868.05	60241.25
868.293	59942.25
868.537	59743.25
868.78	59750.25
869.024	59280.25
869.267	58860.25
869.511	58446.25
869.754	58089.25
869.998	57532.25
870.241	57161.25
870.484	56778.25
870.728	56344.25
870.971	55990.25
871.214	55801.25
871.457	55600.25
871.7	55495.25
871.943	55616.25
872.186	55844.25
872.429	55842.25
872.672	55852.25
872.915	55677.25
873.158	55565.25
873.4	55642.25
873.643	55396.25
873.886	55133.25
874.128	55107.25
874.371	54799.25
874.613	54777.25
874.856	54590.25
875.098	54478.25
875.341	54263.25
875.583	54278.25
875.825	53940.25
876.068	53869.25
876.31	53340.25
876.552	52817.25
876.794	52354.25
877.036	52040.25
877.278	51575.25
877.52	51491.25
877.762	51301.25
878.004	51110.25
878.246	50905.25
878.488	50888.25
878.73	50973.25
878.972	50724.25
879.213	50592.25
879.455	50816.25
879.697	50615.25
879.938	50584.25
880.18	50341.25
880.421	50191.25
880.663	49958.25
880.904	50225.25
881.145	50203.25
881.387	50272.25
881.628	50092.25
881.869	49954.25
882.11	49952.25
882.352	49611.25
882.593	49585.25
882.834	49469.25
883.075	49331.25
883.316	49083.25
883.557	48863.25
883.797	48780.25
884.038	48475.25
884.279	47781.25
884.52	47176.25
884.761	46799.25
885.001	46414.25
885.242	46128.25
885.482	45917.25
885.723	45549.25
885.963	45409.25
886.204	45091.25
886.444	45086.25
886.685	44916.25
886.925	44744.25
887.165	44519.25
887.405	44222.25
887.646	44078.25
887.886	43974.25
888.126	43980.25
888.366	44072.25
888.606	44108.25
888.846	44155.25
889.086	44182.25
889.326	44227.25
889.565	44153.25
889.805	44204.25
890.045	44173.25
890.285	44070.25
890.524	43818.25
890.764	43752.25
891.003	43153.25
891.243	42815.25
891.482	42516.25
891.722	42191.25
891.961	41822.25
892.201	41596.25
892.44	41293.25
892.679	41129.25
892.918	41144.25
893.158	41101.25
893.397	40968.25
893.636	40811.25
893.875	40475.25
894.114	40549.25
894.353	40437.25
894.592	40199.25
894.831	40020.25
895.069	39734.25
895.308	39451.25
895.547	39126.25
895.786	39096.25
896.024	39184.25
896.263	38859.25
896.501	38910.25
896.74	38835.25
896.978	38780.25
897.217	38615.25
897.455	38573.25
897.694	38339.25
897.932	38217.25
898.17	38207.25
898.408	38159.25
898.646	37921.25
898.885	37888.25
899.123	37758.25
899.361	37378.25
899.599	37131.25
899.837	36908.25
900.075	36765.25
900.312	36466.25
900.55	36089.25
900.788	35862.25
901.026	35486.25
901.263	35285.25
901.501	34971.25
901.739	34794.25
901.976	34799.25
902.214	34416.25
902.451	34314.25
902.689	34330.25
902.926	34271.25
903.163	34143.25
903.401	34354.25
903.638	34288.25
903.875	34230.25
904.112	34121.25
904.349	34135.25
904.586	33924.25
904.823	34001.25
905.06	33600.25
905.297	33369.25
905.534	33251.25
905.771	32831.25
906.008	32724.25
906.245	32611.25
906.481	32282.25
906.718	32154.25
906.955	32051.25
907.191	31948.25
907.428	31853.25
907.664	31733.25
907.901	31621.25
908.137	31568.25
908.374	31367.25
908.61	31170.25
908.846	31107.25
909.083	30840.25
909.319	30818.25
909.555	30395.25
909.791	30230.25
910.027	29954.25
910.263	29772.25
910.499	29598.25
910.735	29391.25
910.971	29242.25
911.207	29011.25
911.443	28878.25
911.678	28794.25
911.914	28638.25
912.15	28691.25
912.385	28591.25
912.621	28488.25
912.857	28464.25
913.092	28387.25
913.328	28481.25
913.563	28288.25
913.798	28367.25
914.034	28260.25
914.269	28172.25
914.504	28094.25
914.739	27990.25
914.975	27904.25
915.21	27707.25
915.445	27485.25
915.68	27313.25
915.915	26936.25
916.15	26736.25
916.384	26445.25
916.619	26071.25
916.854	25921.25
917.089	25808.25
917.324	25765.25
917.558	25433.25
917.793	25352.25
918.028	25369.25
918.262	25318.25
918.497	25257.25
918.731	25216.25
918.965	25115.25
919.2	25117.25
919.434	24992.25
919.668	24989.25
919.903	24941.25
920.137	24818.25
920.371	24723.25
920.605	24570.25
920.839	24279.25
921.073	24223.25
921.307	24132.25
921.541	23883.25
921.775	23743.25
922.009	23718.25
922.243	23541.25
922.476	23560.25
922.71	23560.25
922.944	23408.25
923.177	23389.25
923.411	23509.25
923.644	23452.25
923.878	23394.25
924.111	23137.25
924.345	23137.25
924.578	23061.25
924.811	22844.25
925.045	22801.25
925.278	22525.25
925.511	22452.25
925.744	22293.25
925.977	22090.25
926.21	22059.25
926.443	21842.25
926.676	21591.25
926.909	21416.25
927.142	21331.25
927.375	21144.25
927.608	21149.25
927.841	20951.25
928.073	20921.25
928.306	20739.25
928.539	20820.25
928.771	20816.25
929.004	20725.25
929.236	20716.25
929.469	20653.25
929.701	20742.25
929.933	20804.25
930.166	20765.25
930.398	20728.25
930.63	20635.25
930.862	20501.25
931.094	20530.25
931.327	20385.25
931.559	20216.25
931.791	20203.25
932.023	20021.25
932.255	19951.25
932.486	19639.25
932.718	19652.25
932.95	19396.25
933.182	19292.25
933.413	19209.25
933.645	19160.25
933.877	19171.25
934.108	19020.25
934.34	18952.25
934.571	18883.25
934.803	18795.25
935.034	18759.25
935.265	18684.25
935.497	18590.25
935.728	18537.25
935.959	18440.25
936.19	18421.25
936.422	18200.25
936.653	18201.25
936.884	18168.25
937.115	18107.25
937.346	17959.25
937.577	17861.25
937.807	17718.25
938.038	17535.25
938.269	17610.25
938.5	17621.25
938.73	17611.25
938.961	17387.25
939.192	17454.25
939.422	17462.25
939.653	17452.25
939.883	17410.25
940.114	17379.25
940.344	17377.25
940.574	17322.25
940.805	17162.25
941.035	17012.25
941.265	16981.25
941.495	16784.25
941.726	16662.25
941.956	16520.25
942.186	16455.25
942.416	16404.25
942.646	16219.25
942.876	16084.25
943.105	15995.25
943.335	15892.25
943.565	15773.25
943.795	15706.25
944.024	15544.25
944.254	15389.25
944.484	15340.25
944.713	15248.25
944.943	15195.25
945.172	15105.25
945.402	15109.25
945.631	15099.25
945.86	15036.25
946.09	15066.25
946.319	14995.25
946.548	15014.25
946.777	14898.25
947.006	14976.25
947.235	14880.25
947.465	14796.25
947.694	14650.25
947.922	14533.25
948.151	14469.25
948.38	14494.25
948.609	14231.25
948.838	14176.25
949.067	14119.25
949.295	13942.25
949.524	13812.25
949.752	13750.25
949.981	13748.25
950.21	13622.25
950.438	13560.25
950.666	13446.25
950.895	13490.25
951.123	13194.25
951.351	13225.25
951.58	13205.25
951.808	13171.25
952.036	13013.25
952.264	12919.25
952.492	12942.25
952.72	12922.25
952.948	12784.25
953.176	12704.25
953.404	12635.25
953.632	12537.25
953.86	12468.25
954.088	12345.25
954.315	12215.25
954.543	12146.25
954.771	12228.25
954.998	12049.25
955.226	11973.25
955.453	11946.25
955.681	11933.25
955.908	11913.25
956.135	11838.25
956.363	11804.25
956.59	11852.25
956.817	11695.25
957.045	11769.25
957.272	11671.25
957.499	11627.25
957.726	11505.25
957.953	11571.25
958.18	11460.25
958.407	11425.25
958.634	11295.25
958.861	11226.25
959.087	11203.25
959.314	11137.25
959.541	11053.25
959.767	11017.25
959.994	10916.25
960.221	10905.25
960.447	10773.25
960.674	10658.25
960.9	10539.25
961.127	10597.25
961.353	10451.25
961.579	10391.25
961.806	10339.25
962.032	10216.25
962.258	10199.25
962.484	10154.25
962.71	10117.25
962.936	10094.25
963.162	10143.25
963.388	10143.25
963.614	10105.25
963.84	10025.25
964.066	9943.25
964.292	9957.25
964.518	9914.25
964.743	9828.25
964.969	9809.25
965.195	9846.25
965.42	9743.25
965.646	9727.25
965.871	9653.25
966.097	9546.25
966.322	9583.25
966.547	9547.25
966.773	9456.25
966.998	9346.25
967.223	9349.25
967.448	9348.25
967.674	9289.25
967.899	9239.25
968.124	9154.25
968.349	9135.25
968.574	9039.25
968.799	9033.25
969.024	8903.25
969.248	8905.25
969.473	8905.25
969.698	8865.25
969.923	8734.25
970.147	8696.25
970.372	8618.25
970.596	8629.25
970.821	8602.25
971.046	8506.25
971.27	8446.25
971.494	8431.25
971.719	8320.25
971.943	8311.25
972.167	8196.25
972.392	8160.25
972.616	8129.25
972.84	8088.25
973.064	8026.25
973.288	8035.25
973.512	8046.25
973.736	7935.25
973.96	7953.25
974.184	7928.25
974.408	7894.25
974.631	7801.25
974.855	7852.25
975.079	7814.25
975.303	7776.25
975.526	7744.25
975.75	7725.25
975.973	7635.25
976.197	7656.25
976.42	7612.25
976.644	7598.25
976.867	7494.25
977.09	7489.25
977.313	7412.25
977.537	7335.25
977.76	7259.25
977.983	7246.25
978.206	7166.25
978.429	7150.25
978.652	7078.25
978.875	7036.25
979.098	7005.25
979.321	7003.25
979.544	6885.25
979.767	6858.25
979.989	6842.25
980.212	6828.25
980.435	6718.25
980.657	6696.25
980.88	6718.25
981.102	6662.25
981.325	6710.25
981.547	6590.25
981.77	6516.25
981.992	6512.25
982.214	6506.25
982.437	6446.25
982.659	6385.25
982.881	6426.25
983.103	6413.25
983.325	6329.25
983.547	6274.25
983.769	6283.25
983.991	6268.25
984.213	6258.25
984.435	6184.25
984.657	6245.25
984.879	6194.25
985.1	6163.25
985.322	6118.25
985.544	6098.25
985.765	6068.25
985.987	6003.25
986.208	5984.25
986.43	5987.25
986.651	5898.25
986.873	5880.25
987.094	5838.25
987.315	5833.25
987.536	5766.25
987.758	5740.25
987.979	5673.25
988.2	5654.25
988.421	5568.25
988.642	5590.25
988.863	5537.25
989.084	5495.25
989.305	5479.25
989.526	5460.25
989.747	5431.25
989.967	5359.25
990.188	5364.25
990.409	5337.25
990.629	5248.25
990.85	5252.25
991.071	5184.25
991.291	5157.25
991.512	5107.25
991.732	5141.25
991.952	5091.25
992.173	5060.25
992.393	5095.25
992.613	5057.25
992.834	5076.25
993.054	5007.25
993.274	4988.25
993.494	5012.25
993.714	4960.25
993.934	4924.25
994.154	4902.25
994.374	4913.25
994.594	4863.25
994.813	4807.25
995.033	4859.25
995.253	4802.25
995.473	4850.25
995.692	4759.25
995.912	4741.25
996.131	4693.25
996.351	4684.25
996.57	4617.25
996.79	4527.25
997.009	4514.25
997.228	4499.25
997.448	4502.25
997.667	4453.25
997.886	4425.25
998.105	4315.25
998.325	4308.25
998.544	4288.25
998.763	4254.25
998.982	4234.25
999.201	4206.25
999.419	4199.25
999.638	4158.25
999.857	4171.25
1000.076	4119.25
1000.295	4106.25
1000.513	4121.25
1000.732	4041.25
1000.95	4040.25
1001.169	4037.25
1001.388	4000.25
1001.606	4008.25
1001.824	3953.25
1002.043	3930.25
1002.261	3949.25
1002.479	3927.25
1002.698	3927.25
1002.916	3862.25
1003.134	3874.25
1003.352	3862.25
1003.57	3852.25
1003.788	3809.25
1004.006	3802.25
1004.224	3814.25
1004.442	3765.25
1004.66	3747.25
1004.878	3757.25
1005.095	3692.25
1005.313	3681.25
1005.531	3661.25
1005.748	3649.25
1005.966	3755.25
1006.184	3634.25
1006.401	3639.25
1006.618	3620.25
1006.836	3575.25
1007.053	3608.25
1007.271	3603.25
1007.488	3516.25
1007.705	3557.25
1007.922	3571.25
1008.139	3483.25
1008.357	3552.25
1008.574	3515.25
1008.791	3557.25
1009.008	3597.25
1009.225	3617.25
1009.441	3600.25
1009.658	3614.25
1009.875	3595.25
1010.092	3619.25
1010.309	3580.25
1010.525	3560.25
1010.742	3504.25
1010.958	3452.25
1011.175	3431.25
1011.391	3432.25
1011.608	3358.25
1011.824	3339.25
1012.041	3327.25
1012.257	3324.25
1012.473	3277.25
1012.689	3249.25
1012.906	3227.25
1013.122	3227.25
1013.338	3170.25
1013.554	3177.25
1013.77	3196.25
1013.986	3179.25
1014.202	3268.25
1014.418	3266.25
1014.634	3339.25
1014.849	3366.25
1015.065	3413.25
1015.281	3425.25
1015.496	3365.25
1015.712	3328.25
1015.928	3322.25
1016.143	3260.25
1016.359	3196.25
1016.574	3107.25
1016.79	3077.25
1017.005	2984.25
1017.22	2973.25
1017.435	2904.25
1017.651	2830.25
1017.866	2818.25
1018.081	2729.25
1018.296	2682.25
1018.511	2676.25
1018.726	2652.25
1018.941	2611.25
1019.156	2618.25
1019.371	2614.25
1019.586	2567.25
1019.801	2585.25
1020.015	2548.25
1020.23	2577.25
1020.445	2530.25
1020.659	2489.25
1020.874	2450.25
1021.088	2407.25
1021.303	2347.25
1021.517	2345.25
1021.732	2326.25
1021.946	2298.25
1022.16	2269.25
1022.375	2268.25
1022.589	2221.25
1022.803	2184.25
1023.017	2106.25
1023.231	2068.25
1023.445	2071.25
1023.659	2005.25
1023.873	1984.25
1024.087	1944.25
1024.301	1917.25
1024.515	1883.25
1024.729	1834.25
1024.942	1813.25
1025.156	1799.25
1025.37	1781.25
1025.583	1750.25
1025.797	1675.25
1026.01	1661.25
1026.224	1614.25
1026.437	1565.25
1026.651	1538.25
1026.864	1476.25
1027.077	1473.25
1027.291	1440.25
1027.504	1396.25
1027.717	1336.25
1027.93	1304.25
1028.143	1269.25
1028.356	1247.25
1028.569	1166.25
1028.782	1113.25
1028.995	-3.75
1029.208	2.25
1029.421	-3.75
1029.634	-1.75
