Data from QEP037381__235__15-25-19-052.txt Node

Date: Mon Mar 14 15:25:19 EDT 2022
User: dcclab
Spectrometer: QEP03738
Trigger mode: 4
Integration Time (sec): 2.500000E0
Scans to average: 1
Electric dark correction enabled: true
Nonlinearity correction enabled: false
Boxcar width: 0
XAxis mode: Wavelengths
Number of Pixels in Spectrum: 1044
>>>>>Begin Spectral Data<<<<<
783.959	13.38
784.218	3.38
784.476	-3.62
784.734	-4.62
784.992	237.38
785.251	241.38
785.509	241.38
785.767	228.38
786.025	234.38
786.283	226.38
786.541	236.38
786.798	231.38
787.056	218.38
787.314	217.38
787.572	231.38
787.83	229.38
788.087	239.38
788.345	230.38
788.602	237.38
788.86	231.38
789.117	238.38
789.375	219.38
789.632	232.38
789.89	233.38
790.147	251.38
790.404	247.38
790.661	232.38
790.919	258.38
791.176	254.38
791.433	249.38
791.69	270.38
791.947	252.38
792.204	251.38
792.461	267.38
792.718	281.38
792.974	286.38
793.231	288.38
793.488	306.38
793.745	312.38
794.001	327.38
794.258	341.38
794.514	332.38
794.771	379.38
795.027	371.38
795.284	395.38
795.54	423.38
795.797	431.38
796.053	486.38
796.309	512.38
796.565	545.38
796.822	630.38
797.078	696.38
797.334	807.38
797.59	958.38
797.846	1162.38
798.102	1517.38
798.358	2016.38
798.614	2853.38
798.869	4127.38
799.125	6097.38
799.381	8863.38
799.637	12587.38
799.892	17064.38
800.148	21999.38
800.403	26818.38
800.659	30930.38
800.914	34139.38
801.17	36377.38
801.425	37939.38
801.68	39109.38
801.936	40014.38
802.191	40858.38
802.446	41803.38
802.701	42728.38
802.957	43650.38
803.212	44771.38
803.467	45659.38
803.722	46543.38
803.977	47455.38
804.232	48386.38
804.486	49485.38
804.741	50456.38
804.996	51435.38
805.251	52219.38
805.505	53181.38
805.76	54142.38
806.015	54939.38
806.269	55567.38
806.524	56430.38
806.778	57054.38
807.033	57404.38
807.287	58390.38
807.541	59030.38
807.796	60018.38
808.05	60595.38
808.304	61073.38
808.558	61540.38
808.812	61980.38
809.066	62639.38
809.32	63300.38
809.574	63464.38
809.828	64064.38
810.082	64603.38
810.336	65253.38
810.59	65825.38
810.844	66578.38
811.097	67429.38
811.351	68385.38
811.605	69876.38
811.858	70808.38
812.112	72040.38
812.365	73120.38
812.619	74461.38
812.872	75569.38
813.126	76682.38
813.379	77791.38
813.632	78744.38
813.885	79797.38
814.139	81112.38
814.392	82373.38
814.645	83563.38
814.898	85242.38
815.151	86912.38
815.404	88628.38
815.657	90062.38
815.91	91341.38
816.163	92802.38
816.416	93545.38
816.668	94288.38
816.921	94765.38
817.174	95260.38
817.426	95201.38
817.679	95204.38
817.931	95459.38
818.184	95354.38
818.436	95464.38
818.689	95652.38
818.941	95804.38
819.194	96151.38
819.446	96632.38
819.698	97154.38
819.95	97815.38
820.202	98118.38
820.455	98598.38
820.707	98659.38
820.959	98746.38
821.211	98969.38
821.462	98419.38
821.714	98628.38
821.966	98278.38
822.218	97938.38
822.47	97438.38
822.722	97030.38
822.973	97120.38
823.225	96800.38
823.476	96569.38
823.728	96597.38
823.979	96923.38
824.231	96717.38
824.482	96907.38
824.734	96987.38
824.985	97236.38
825.236	97050.38
825.487	96701.38
825.739	96601.38
825.99	96278.38
826.241	96108.38
826.492	95447.38
826.743	95104.38
826.994	94690.38
827.245	94310.38
827.496	94156.38
827.747	93961.38
827.997	94106.38
828.248	94153.38
828.499	94164.38
828.75	94470.38
829	94490.38
829.251	94477.38
829.501	94315.38
829.752	94115.38
830.002	93570.38
830.253	93076.38
830.503	92494.38
830.753	92188.38
831.004	91534.38
831.254	90997.38
831.504	90977.38
831.754	90668.38
832.004	90703.38
832.254	90757.38
832.504	90958.38
832.754	90808.38
833.004	90652.38
833.254	90628.38
833.504	90527.38
833.754	90267.38
834.003	90099.38
834.253	89667.38
834.503	89226.38
834.752	88671.38
835.002	88392.38
835.252	88041.38
835.501	87749.38
835.75	87450.38
836	87064.38
836.249	86966.38
836.499	87054.38
836.748	87112.38
836.997	87254.38
837.246	87289.38
837.495	87819.38
837.744	88087.38
837.993	88473.38
838.242	88771.38
838.491	88581.38
838.74	87791.38
838.989	86831.38
839.238	86208.38
839.487	85236.38
839.736	84679.38
839.984	84469.38
840.233	83919.38
840.482	83554.38
840.73	83218.38
840.979	83079.38
841.227	83023.38
841.476	82618.38
841.724	82376.38
841.972	81959.38
842.221	82045.38
842.469	81869.38
842.717	81307.38
842.965	80840.38
843.213	80885.38
843.461	80637.38
843.71	80200.38
843.958	80093.38
844.205	79911.38
844.453	79614.38
844.701	79613.38
844.949	79490.38
845.197	79474.38
845.445	79501.38
845.692	79340.38
845.94	79511.38
846.188	79643.38
846.435	79648.38
846.683	79549.38
846.93	79115.38
847.178	78900.38
847.425	78262.38
847.672	77632.38
847.92	76819.38
848.167	76229.38
848.414	75570.38
848.661	75047.38
848.908	74649.38
849.155	74454.38
849.402	74323.38
849.649	74700.38
849.896	74722.38
850.143	75475.38
850.39	75564.38
850.637	75458.38
850.884	75411.38
851.131	75386.38
851.377	75214.38
851.624	75029.38
851.87	74635.38
852.117	74547.38
852.364	73858.38
852.61	73465.38
852.856	73412.38
853.103	73097.38
853.349	72828.38
853.595	72353.38
853.842	72116.38
854.088	71757.38
854.334	72187.38
854.58	72008.38
854.826	71642.38
855.072	71118.38
855.318	70466.38
855.564	69855.38
855.81	69353.38
856.056	68896.38
856.302	68413.38
856.548	67942.38
856.793	67536.38
857.039	67084.38
857.285	66995.38
857.53	66773.38
857.776	66883.38
858.021	67150.38
858.267	67623.38
858.512	67595.38
858.758	67742.38
859.003	67752.38
859.248	67819.38
859.493	67620.38
859.739	67272.38
859.984	67236.38
860.229	66890.38
860.474	66562.38
860.719	66174.38
860.964	65845.38
861.209	65501.38
861.454	64888.38
861.699	64585.38
861.943	64263.38
862.188	64039.38
862.433	63653.38
862.678	63478.38
862.922	63267.38
863.167	63168.38
863.411	63179.38
863.656	62945.38
863.9	62952.38
864.145	62670.38
864.389	62349.38
864.634	61926.38
864.878	61770.38
865.122	61680.38
865.366	61552.38
865.61	61330.38
865.855	61245.38
866.099	61044.38
866.343	61049.38
866.587	60963.38
866.831	60985.38
867.074	60768.38
867.318	60758.38
867.562	60760.38
867.806	60748.38
868.05	60735.38
868.293	60602.38
868.537	60359.38
868.78	60181.38
869.024	59909.38
869.267	59392.38
869.511	59001.38
869.754	58720.38
869.998	57961.38
870.241	57593.38
870.484	57140.38
870.728	56597.38
870.971	56396.38
871.214	56244.38
871.457	56100.38
871.7	56185.38
871.943	56217.38
872.186	56225.38
872.429	56221.38
872.672	56169.38
872.915	56258.38
873.158	56173.38
873.4	56046.38
873.643	55929.38
873.886	55607.38
874.128	55437.38
874.371	55354.38
874.613	55126.38
874.856	55134.38
875.098	54953.38
875.341	54915.38
875.583	54661.38
875.825	54303.38
876.068	54157.38
876.31	53656.38
876.552	53426.38
876.794	52748.38
877.036	52448.38
877.278	52072.38
877.52	51890.38
877.762	51779.38
878.004	51499.38
878.246	51371.38
878.488	51319.38
878.73	51236.38
878.972	51208.38
879.213	51245.38
879.455	50995.38
879.697	51128.38
879.938	50887.38
880.18	50589.38
880.421	50670.38
880.663	50433.38
880.904	50646.38
881.145	50496.38
881.387	50668.38
881.628	50656.38
881.869	50349.38
882.11	50351.38
882.352	50019.38
882.593	49924.38
882.834	49812.38
883.075	49688.38
883.316	49526.38
883.557	49170.38
883.797	48877.38
884.038	48784.38
884.279	48059.38
884.52	47630.38
884.761	47261.38
885.001	46821.38
885.242	46554.38
885.482	46245.38
885.723	45901.38
885.963	45588.38
886.204	45448.38
886.444	45417.38
886.685	45108.38
886.925	44984.38
887.165	44917.38
887.405	44427.38
887.646	44372.38
887.886	44565.38
888.126	44390.38
888.366	44313.38
888.606	44408.38
888.846	44501.38
889.086	44550.38
889.326	44612.38
889.565	44460.38
889.805	44540.38
890.045	44445.38
890.285	44231.38
890.524	44155.38
890.764	43931.38
891.003	43625.38
891.243	43129.38
891.482	42585.38
891.722	42547.38
891.961	42163.38
892.201	41895.38
892.44	41706.38
892.679	41554.38
892.918	41521.38
893.158	41295.38
893.397	41133.38
893.636	41017.38
893.875	40873.38
894.114	40703.38
894.353	40605.38
894.592	40489.38
894.831	40306.38
895.069	40033.38
895.308	39660.38
895.547	39479.38
895.786	39384.38
896.024	39408.38
896.263	39231.38
896.501	39221.38
896.74	39113.38
896.978	39067.38
897.217	39005.38
897.455	38901.38
897.694	38747.38
897.932	38592.38
898.17	38634.38
898.408	38367.38
898.646	38323.38
898.885	38114.38
899.123	37829.38
899.361	37555.38
899.599	37336.38
899.837	37293.38
900.075	36925.38
900.312	36498.38
900.55	36416.38
900.788	36174.38
901.026	35716.38
901.263	35557.38
901.501	35237.38
901.739	34889.38
901.976	34804.38
902.214	34681.38
902.451	34630.38
902.689	34531.38
902.926	34520.38
903.163	34455.38
903.401	34336.38
903.638	34588.38
903.875	34503.38
904.112	34350.38
904.349	34367.38
904.586	34188.38
904.823	34172.38
905.06	33805.38
905.297	33706.38
905.534	33421.38
905.771	33186.38
906.008	32878.38
906.245	32817.38
906.481	32681.38
906.718	32441.38
906.955	32242.38
907.191	32051.38
907.428	31970.38
907.664	31823.38
907.901	31669.38
908.137	31576.38
908.374	31571.38
908.61	31360.38
908.846	31294.38
909.083	30914.38
909.319	30795.38
909.555	30752.38
909.791	30426.38
910.027	30093.38
910.263	29969.38
910.499	29950.38
910.735	29664.38
910.971	29423.38
911.207	29207.38
911.443	29019.38
911.678	28985.38
911.914	28757.38
912.15	28794.38
912.385	28724.38
912.621	28671.38
912.857	28601.38
913.092	28647.38
913.328	28601.38
913.563	28466.38
913.798	28543.38
914.034	28508.38
914.269	28271.38
914.504	28233.38
914.739	28190.38
914.975	28049.38
915.21	27993.38
915.445	27637.38
915.68	27398.38
915.915	27277.38
916.15	26950.38
916.384	26576.38
916.619	26385.38
916.854	26096.38
917.089	26045.38
917.324	25857.38
917.558	25582.38
917.793	25514.38
918.028	25553.38
918.262	25478.38
918.497	25440.38
918.731	25355.38
918.965	25309.38
919.2	25294.38
919.434	25198.38
919.668	25168.38
919.903	25130.38
920.137	24973.38
920.371	24797.38
920.605	24657.38
920.839	24573.38
921.073	24369.38
921.307	24203.38
921.541	23998.38
921.775	23954.38
922.009	23840.38
922.243	23823.38
922.476	23724.38
922.71	23560.38
922.944	23708.38
923.177	23584.38
923.411	23545.38
923.644	23509.38
923.878	23421.38
924.111	23343.38
924.345	23259.38
924.578	23141.38
924.811	23080.38
925.045	22911.38
925.278	22745.38
925.511	22561.38
925.744	22394.38
925.977	22292.38
926.21	22059.38
926.443	21885.38
926.676	21784.38
926.909	21623.38
927.142	21450.38
927.375	21248.38
927.608	21216.38
927.841	21047.38
928.073	20977.38
928.306	20885.38
928.539	20988.38
928.771	20855.38
929.004	20851.38
929.236	20813.38
929.469	20863.38
929.701	20919.38
929.933	20827.38
930.166	20800.38
930.398	20925.38
930.63	20794.38
930.862	20716.38
931.094	20611.38
931.327	20491.38
931.559	20431.38
931.791	20205.38
932.023	20164.38
932.255	20002.38
932.486	19784.38
932.718	19628.38
932.95	19523.38
933.182	19408.38
933.413	19405.38
933.645	19265.38
933.877	19180.38
934.108	19257.38
934.34	18948.38
934.571	19025.38
934.803	19010.38
935.034	18858.38
935.265	18733.38
935.497	18725.38
935.728	18626.38
935.959	18507.38
936.19	18504.38
936.422	18415.38
936.653	18304.38
936.884	18265.38
937.115	18107.38
937.346	18009.38
937.577	17881.38
937.807	17768.38
938.038	17745.38
938.269	17774.38
938.5	17630.38
938.73	17659.38
938.961	17612.38
939.192	17566.38
939.422	17549.38
939.653	17487.38
939.883	17492.38
940.114	17503.38
940.344	17413.38
940.574	17427.38
940.805	17189.38
941.035	17131.38
941.265	16981.38
941.495	16964.38
941.726	16729.38
941.956	16637.38
942.186	16464.38
942.416	16401.38
942.646	16258.38
942.876	16181.38
943.105	16132.38
943.335	16057.38
943.565	15808.38
943.795	15751.38
944.024	15659.38
944.254	15425.38
944.484	15404.38
944.713	15380.38
944.943	15277.38
945.172	15221.38
945.402	15204.38
945.631	15112.38
945.86	15161.38
946.09	15005.38
946.319	15016.38
946.548	15039.38
946.777	15053.38
947.006	15042.38
947.235	14894.38
947.465	14816.38
947.694	14806.38
947.922	14651.38
948.151	14542.38
948.38	14333.38
948.609	14346.38
948.838	14260.38
949.067	14093.38
949.295	14044.38
949.524	14020.38
949.752	13870.38
949.981	13714.38
950.21	13665.38
950.438	13617.38
950.666	13548.38
950.895	13503.38
951.123	13360.38
951.351	13353.38
951.58	13210.38
951.808	13185.38
952.036	13041.38
952.264	13112.38
952.492	13040.38
952.72	13004.38
952.948	12926.38
953.176	12781.38
953.404	12639.38
953.632	12613.38
953.86	12486.38
954.088	12317.38
954.315	12290.38
954.543	12228.38
954.771	12176.38
954.998	12095.38
955.226	12046.38
955.453	11991.38
955.681	11926.38
955.908	12012.38
956.135	11941.38
956.363	11942.38
956.59	11945.38
956.817	11906.38
957.045	11801.38
957.272	11723.38
957.499	11648.38
957.726	11586.38
957.953	11694.38
958.18	11586.38
958.407	11419.38
958.634	11450.38
958.861	11384.38
959.087	11203.38
959.314	11192.38
959.541	11104.38
959.767	11028.38
959.994	11005.38
960.221	10894.38
960.447	10793.38
960.674	10707.38
960.9	10671.38
961.127	10533.38
961.353	10457.38
961.579	10445.38
961.806	10392.38
962.032	10277.38
962.258	10259.38
962.484	10270.38
962.71	10180.38
962.936	10222.38
963.162	10179.38
963.388	10133.38
963.614	10072.38
963.84	10125.38
964.066	10102.38
964.292	10028.38
964.518	9972.38
964.743	9907.38
964.969	9909.38
965.195	9773.38
965.42	9789.38
965.646	9769.38
965.871	9673.38
966.097	9678.38
966.322	9588.38
966.547	9449.38
966.773	9489.38
966.998	9516.38
967.223	9415.38
967.448	9326.38
967.674	9306.38
967.899	9247.38
968.124	9208.38
968.349	9099.38
968.574	9069.38
968.799	9029.38
969.024	8954.38
969.248	8956.38
969.473	8858.38
969.698	8873.38
969.923	8742.38
970.147	8699.38
970.372	8684.38
970.596	8592.38
970.821	8589.38
971.046	8552.38
971.27	8460.38
971.494	8435.38
971.719	8413.38
971.943	8327.38
972.167	8270.38
972.392	8220.38
972.616	8117.38
972.84	8110.38
973.064	8058.38
973.288	8098.38
973.512	8044.38
973.736	7972.38
973.96	7957.38
974.184	7947.38
974.408	7888.38
974.631	7828.38
974.855	7867.38
975.079	7831.38
975.303	7756.38
975.526	7740.38
975.75	7704.38
975.973	7598.38
976.197	7660.38
976.42	7565.38
976.644	7573.38
976.867	7521.38
977.09	7496.38
977.313	7412.38
977.537	7476.38
977.76	7295.38
977.983	7293.38
978.206	7224.38
978.429	7174.38
978.652	7176.38
978.875	7023.38
979.098	7047.38
979.321	6966.38
979.544	6936.38
979.767	6909.38
979.989	6859.38
980.212	6815.38
980.435	6769.38
980.657	6704.38
980.88	6685.38
981.102	6656.38
981.325	6639.38
981.547	6595.38
981.77	6580.38
981.992	6590.38
982.214	6500.38
982.437	6489.38
982.659	6462.38
982.881	6433.38
983.103	6429.38
983.325	6423.38
983.547	6369.38
983.769	6306.38
983.991	6276.38
984.213	6254.38
984.435	6262.38
984.657	6203.38
984.879	6197.38
985.1	6159.38
985.322	6098.38
985.544	6054.38
985.765	6053.38
985.987	5965.38
986.208	6001.38
986.43	5991.38
986.651	5940.38
986.873	5837.38
987.094	5877.38
987.315	5874.38
987.536	5743.38
987.758	5770.38
987.979	5664.38
988.2	5720.38
988.421	5661.38
988.642	5598.38
988.863	5547.38
989.084	5516.38
989.305	5473.38
989.526	5460.38
989.747	5443.38
989.967	5427.38
990.188	5382.38
990.409	5325.38
990.629	5307.38
990.85	5228.38
991.071	5174.38
991.291	5208.38
991.512	5190.38
991.732	5144.38
991.952	5067.38
992.173	5077.38
992.393	5081.38
992.613	5041.38
992.834	5085.38
993.054	5029.38
993.274	5000.38
993.494	4935.38
993.714	4976.38
993.934	4990.38
994.154	4965.38
994.374	4908.38
994.594	4841.38
994.813	4860.38
995.033	4821.38
995.253	4791.38
995.473	4784.38
995.692	4748.38
995.912	4721.38
996.131	4686.38
996.351	4639.38
996.57	4625.38
996.79	4616.38
997.009	4591.38
997.228	4492.38
997.448	4463.38
997.667	4466.38
997.886	4390.38
998.105	4338.38
998.325	4346.38
998.544	4326.38
998.763	4290.38
998.982	4238.38
999.201	4182.38
999.419	4190.38
999.638	4186.38
999.857	4185.38
1000.076	4121.38
1000.295	4089.38
1000.513	4117.38
1000.732	4074.38
1000.95	4010.38
1001.169	4080.38
1001.388	4012.38
1001.606	4003.38
1001.824	3984.38
1002.043	3934.38
1002.261	3934.38
1002.479	3949.38
1002.698	3905.38
1002.916	3906.38
1003.134	3878.38
1003.352	3869.38
1003.57	3839.38
1003.788	3874.38
1004.006	3816.38
1004.224	3822.38
1004.442	3849.38
1004.66	3813.38
1004.878	3719.38
1005.095	3718.38
1005.313	3723.38
1005.531	3677.38
1005.748	3677.38
1005.966	3752.38
1006.184	3647.38
1006.401	3626.38
1006.618	3602.38
1006.836	3607.38
1007.053	3569.38
1007.271	3602.38
1007.488	3582.38
1007.705	3567.38
1007.922	3543.38
1008.139	3519.38
1008.357	3562.38
1008.574	3553.38
1008.791	3571.38
1009.008	3628.38
1009.225	3631.38
1009.441	3614.38
1009.658	3630.38
1009.875	3611.38
1010.092	3607.38
1010.309	3555.38
1010.525	3534.38
1010.742	3480.38
1010.958	3445.38
1011.175	3415.38
1011.391	3388.38
1011.608	3366.38
1011.824	3328.38
1012.041	3325.38
1012.257	3294.38
1012.473	3269.38
1012.689	3225.38
1012.906	3211.38
1013.122	3202.38
1013.338	3186.38
1013.554	3193.38
1013.77	3171.38
1013.986	3218.38
1014.202	3234.38
1014.418	3302.38
1014.634	3339.38
1014.849	3393.38
1015.065	3417.38
1015.281	3438.38
1015.496	3344.38
1015.712	3388.38
1015.928	3314.38
1016.143	3197.38
1016.359	3190.38
1016.574	3128.38
1016.79	3089.38
1017.005	3016.38
1017.22	2942.38
1017.435	2900.38
1017.651	2855.38
1017.866	2802.38
1018.081	2719.38
1018.296	2701.38
1018.511	2692.38
1018.726	2677.38
1018.941	2619.38
1019.156	2624.38
1019.371	2599.38
1019.586	2570.38
1019.801	2566.38
1020.015	2541.38
1020.23	2537.38
1020.445	2491.38
1020.659	2485.38
1020.874	2436.38
1021.088	2410.38
1021.303	2373.38
1021.517	2340.38
1021.732	2330.38
1021.946	2303.38
1022.16	2276.38
1022.375	2244.38
1022.589	2217.38
1022.803	2182.38
1023.017	2129.38
1023.231	2086.38
1023.445	2081.38
1023.659	2036.38
1023.873	1994.38
1024.087	1960.38
1024.301	1887.38
1024.515	1879.38
1024.729	1838.38
1024.942	1798.38
1025.156	1823.38
1025.37	1774.38
1025.583	1765.38
1025.797	1691.38
1026.01	1677.38
1026.224	1637.38
1026.437	1580.38
1026.651	1565.38
1026.864	1464.38
1027.077	1464.38
1027.291	1431.38
1027.504	1398.38
1027.717	1360.38
1027.93	1322.38
1028.143	1293.38
1028.356	1238.38
1028.569	1166.38
1028.782	1100.38
1028.995	-5.62
1029.208	-2.62
1029.421	1.38
1029.634	-1.62
