Data from QEP037381__246__15-25-46-550.txt Node

Date: Mon Mar 14 15:25:46 EDT 2022
User: dcclab
Spectrometer: QEP03738
Trigger mode: 4
Integration Time (sec): 2.500000E0
Scans to average: 1
Electric dark correction enabled: true
Nonlinearity correction enabled: false
Boxcar width: 0
XAxis mode: Wavelengths
Number of Pixels in Spectrum: 1044
>>>>>Begin Spectral Data<<<<<
783.959	14.25
784.218	3.25
784.476	-3.75
784.734	-4.75
784.992	245.25
785.251	247.25
785.509	230.25
785.767	230.25
786.025	231.25
786.283	239.25
786.541	230.25
786.798	232.25
787.056	226.25
787.314	220.25
787.572	233.25
787.83	224.25
788.087	227.25
788.345	222.25
788.602	224.25
788.86	227.25
789.117	239.25
789.375	221.25
789.632	229.25
789.89	225.25
790.147	239.25
790.404	232.25
790.661	256.25
790.919	253.25
791.176	249.25
791.433	254.25
791.69	261.25
791.947	265.25
792.204	243.25
792.461	269.25
792.718	274.25
792.974	277.25
793.231	280.25
793.488	299.25
793.745	298.25
794.001	315.25
794.258	338.25
794.514	338.25
794.771	357.25
795.027	366.25
795.284	377.25
795.54	411.25
795.797	437.25
796.053	467.25
796.309	495.25
796.565	535.25
796.822	582.25
797.078	645.25
797.334	776.25
797.59	904.25
797.846	1117.25
798.102	1447.25
798.358	1919.25
798.614	2709.25
798.869	3975.25
799.125	5844.25
799.381	8552.25
799.637	12133.25
799.892	16426.25
800.148	21070.25
800.403	25765.25
800.659	29707.25
800.914	32814.25
801.17	34812.25
801.425	36501.25
801.68	37363.25
801.936	38296.25
802.191	39121.25
802.446	40054.25
802.701	41049.25
802.957	41872.25
803.212	42819.25
803.467	43755.25
803.722	44623.25
803.977	45474.25
804.232	46316.25
804.486	47418.25
804.741	48231.25
804.996	49183.25
805.251	50173.25
805.505	50898.25
805.76	51864.25
806.015	52719.25
806.269	53298.25
806.524	54272.25
806.778	54700.25
807.033	55177.25
807.287	55908.25
807.541	56700.25
807.796	57606.25
808.05	58170.25
808.304	58818.25
808.558	59149.25
808.812	59372.25
809.066	59998.25
809.32	60581.25
809.574	60985.25
809.828	61320.25
810.082	62032.25
810.336	62461.25
810.59	63102.25
810.844	64029.25
811.097	64823.25
811.351	65636.25
811.605	66918.25
811.858	67947.25
812.112	69238.25
812.365	70556.25
812.619	71358.25
812.872	72629.25
813.126	73641.25
813.379	74519.25
813.632	75658.25
813.885	76653.25
814.139	78141.25
814.392	79057.25
814.645	80350.25
814.898	81850.25
815.151	83326.25
815.404	85076.25
815.657	86515.25
815.91	87879.25
816.163	89095.25
816.416	89942.25
816.668	90791.25
816.921	91071.25
817.174	91542.25
817.426	91520.25
817.679	91525.25
817.931	91605.25
818.184	91636.25
818.436	91802.25
818.689	91995.25
818.941	92170.25
819.194	92445.25
819.446	93053.25
819.698	93398.25
819.95	93886.25
820.202	94243.25
820.455	94911.25
820.707	95069.25
820.959	95135.25
821.211	95222.25
821.462	95274.25
821.714	94878.25
821.966	94786.25
822.218	94201.25
822.47	93908.25
822.722	93576.25
822.973	93506.25
823.225	93158.25
823.476	92658.25
823.728	92986.25
823.979	93201.25
824.231	93066.25
824.482	93473.25
824.734	93516.25
824.985	93462.25
825.236	93383.25
825.487	93138.25
825.739	93005.25
825.99	92698.25
826.241	92262.25
826.492	91960.25
826.743	91444.25
826.994	91131.25
827.245	90802.25
827.496	90859.25
827.747	90646.25
827.997	90530.25
828.248	90864.25
828.499	90980.25
828.75	91094.25
829	90864.25
829.251	91037.25
829.501	90769.25
829.752	90558.25
830.002	90124.25
830.253	89632.25
830.503	89320.25
830.753	88747.25
831.004	88238.25
831.254	87815.25
831.504	87866.25
831.754	87638.25
832.004	87558.25
832.254	87433.25
832.504	87770.25
832.754	87863.25
833.004	87559.25
833.254	87474.25
833.504	87341.25
833.754	87219.25
834.003	87001.25
834.253	86660.25
834.503	86202.25
834.752	85631.25
835.002	85138.25
835.252	85139.25
835.501	84597.25
835.75	84370.25
836	84268.25
836.249	84246.25
836.499	84237.25
836.748	84179.25
836.997	84204.25
837.246	84378.25
837.495	84636.25
837.744	85079.25
837.993	85625.25
838.242	85925.25
838.491	85892.25
838.74	84823.25
838.989	84009.25
839.238	83038.25
839.487	82503.25
839.736	82050.25
839.984	81769.25
840.233	81059.25
840.482	80789.25
840.73	80602.25
840.979	80376.25
841.227	79892.25
841.476	79878.25
841.724	79599.25
841.972	79354.25
842.221	79200.25
842.469	79167.25
842.717	78497.25
842.965	78376.25
843.213	78152.25
843.461	77889.25
843.71	77350.25
843.958	77224.25
844.205	77241.25
844.453	77099.25
844.701	76997.25
844.949	77078.25
845.197	76863.25
845.445	76903.25
845.692	77060.25
845.94	77095.25
846.188	76992.25
846.435	77209.25
846.683	77052.25
846.93	76440.25
847.178	76248.25
847.425	75581.25
847.672	74936.25
847.92	74182.25
848.167	73799.25
848.414	73294.25
848.661	72641.25
848.908	72341.25
849.155	72082.25
849.402	72051.25
849.649	72142.25
849.896	72474.25
850.143	72925.25
850.39	73286.25
850.637	73216.25
850.884	73041.25
851.131	73027.25
851.377	72775.25
851.624	72581.25
851.87	72332.25
852.117	71735.25
852.364	71806.25
852.61	71469.25
852.856	71072.25
853.103	70804.25
853.349	70649.25
853.595	70314.25
853.842	69909.25
854.088	69786.25
854.334	69879.25
854.58	69791.25
854.826	69498.25
855.072	68937.25
855.318	68400.25
855.564	67842.25
855.81	67196.25
856.056	67026.25
856.302	66306.25
856.548	65759.25
856.793	65542.25
857.039	65173.25
857.285	64792.25
857.53	65052.25
857.776	65158.25
858.021	65337.25
858.267	65493.25
858.512	65578.25
858.758	65792.25
859.003	65924.25
859.248	65749.25
859.493	65651.25
859.739	65357.25
859.984	65183.25
860.229	64880.25
860.474	64668.25
860.719	64203.25
860.964	63721.25
861.209	63427.25
861.454	62942.25
861.699	62594.25
861.943	62407.25
862.188	62360.25
862.433	61760.25
862.678	61592.25
862.922	61523.25
863.167	61404.25
863.411	61266.25
863.656	61236.25
863.9	61012.25
864.145	60962.25
864.389	60597.25
864.634	60470.25
864.878	60096.25
865.122	59819.25
865.366	59700.25
865.61	59661.25
865.855	59557.25
866.099	59473.25
866.343	59380.25
866.587	59265.25
866.831	59234.25
867.074	59035.25
867.318	59182.25
867.562	59209.25
867.806	59233.25
868.05	59054.25
868.293	59039.25
868.537	58676.25
868.78	58560.25
869.024	58131.25
869.267	57707.25
869.511	57371.25
869.754	57197.25
869.998	56483.25
870.241	55877.25
870.484	55441.25
870.728	55413.25
870.971	54768.25
871.214	54761.25
871.457	54392.25
871.7	54506.25
871.943	54639.25
872.186	54656.25
872.429	54874.25
872.672	54792.25
872.915	54664.25
873.158	54539.25
873.4	54531.25
873.643	54345.25
873.886	54105.25
874.128	53853.25
874.371	53790.25
874.613	53821.25
874.856	53465.25
875.098	53549.25
875.341	53239.25
875.583	53066.25
875.825	53071.25
876.068	52707.25
876.31	52322.25
876.552	52151.25
876.794	51421.25
877.036	50888.25
877.278	50687.25
877.52	50591.25
877.762	50314.25
878.004	50055.25
878.246	49929.25
878.488	50095.25
878.73	49998.25
878.972	49684.25
879.213	49847.25
879.455	49858.25
879.697	49724.25
879.938	49568.25
880.18	49395.25
880.421	49260.25
880.663	49234.25
880.904	49196.25
881.145	49386.25
881.387	49338.25
881.628	49319.25
881.869	49203.25
882.11	48844.25
882.352	48750.25
882.593	48536.25
882.834	48598.25
883.075	48395.25
883.316	48356.25
883.557	48081.25
883.797	47821.25
884.038	47338.25
884.279	46962.25
884.52	46419.25
884.761	46037.25
885.001	45797.25
885.242	45349.25
885.482	44993.25
885.723	44903.25
885.963	44534.25
886.204	44421.25
886.444	44195.25
886.685	44144.25
886.925	43890.25
887.165	43796.25
887.405	43468.25
887.646	43350.25
887.886	43362.25
888.126	43147.25
888.366	43357.25
888.606	43283.25
888.846	43403.25
889.086	43495.25
889.326	43560.25
889.565	43421.25
889.805	43436.25
890.045	43437.25
890.285	43264.25
890.524	43084.25
890.764	42793.25
891.003	42534.25
891.243	42197.25
891.482	41581.25
891.722	41397.25
891.961	41058.25
892.201	40944.25
892.44	40629.25
892.679	40552.25
892.918	40415.25
893.158	40391.25
893.397	40212.25
893.636	40057.25
893.875	39933.25
894.114	39651.25
894.353	39502.25
894.592	39371.25
894.831	39388.25
895.069	38908.25
895.308	38761.25
895.547	38629.25
895.786	38612.25
896.024	38397.25
896.263	38338.25
896.501	38076.25
896.74	38254.25
896.978	38041.25
897.217	37999.25
897.455	37953.25
897.694	37769.25
897.932	37524.25
898.17	37644.25
898.408	37528.25
898.646	37390.25
898.885	37232.25
899.123	36884.25
899.361	36648.25
899.599	36526.25
899.837	36426.25
900.075	35891.25
900.312	35773.25
900.55	35386.25
900.788	35203.25
901.026	34825.25
901.263	34682.25
901.501	34444.25
901.739	34077.25
901.976	33959.25
902.214	33915.25
902.451	33691.25
902.689	33757.25
902.926	33702.25
903.163	33637.25
903.401	33582.25
903.638	33712.25
903.875	33632.25
904.112	33701.25
904.349	33558.25
904.586	33516.25
904.823	33349.25
905.06	33061.25
905.297	32954.25
905.534	32536.25
905.771	32404.25
906.008	32149.25
906.245	31968.25
906.481	31866.25
906.718	31747.25
906.955	31511.25
907.191	31322.25
907.428	31277.25
907.664	31045.25
907.901	31001.25
908.137	30905.25
908.374	30737.25
908.61	30778.25
908.846	30545.25
909.083	30246.25
909.319	30231.25
909.555	29957.25
909.791	29846.25
910.027	29509.25
910.263	29292.25
910.499	29155.25
910.735	28874.25
910.971	28745.25
911.207	28469.25
911.443	28347.25
911.678	28361.25
911.914	28194.25
912.15	28192.25
912.385	28159.25
912.621	28032.25
912.857	27926.25
913.092	28128.25
913.328	27938.25
913.563	27868.25
913.798	27879.25
914.034	27831.25
914.269	27691.25
914.504	27557.25
914.739	27462.25
914.975	27406.25
915.21	27337.25
915.445	26952.25
915.68	26792.25
915.915	26617.25
916.15	26356.25
916.384	25940.25
916.619	25736.25
916.854	25414.25
917.089	25357.25
917.324	25335.25
917.558	25127.25
917.793	24940.25
918.028	24843.25
918.262	24829.25
918.497	24706.25
918.731	24732.25
918.965	24726.25
919.2	24709.25
919.434	24543.25
919.668	24550.25
919.903	24593.25
920.137	24459.25
920.371	24278.25
920.605	24089.25
920.839	24013.25
921.073	23823.25
921.307	23706.25
921.541	23479.25
921.775	23475.25
922.009	23317.25
922.243	23211.25
922.476	23204.25
922.71	23198.25
922.944	23142.25
923.177	23071.25
923.411	23017.25
923.644	23039.25
923.878	22861.25
924.111	22784.25
924.345	22810.25
924.578	22573.25
924.811	22533.25
925.045	22360.25
925.278	22172.25
925.511	22223.25
925.744	21928.25
925.977	21782.25
926.21	21684.25
926.443	21442.25
926.676	21234.25
926.909	21152.25
927.142	21008.25
927.375	20828.25
927.608	20830.25
927.841	20636.25
928.073	20615.25
928.306	20591.25
928.539	20472.25
928.771	20427.25
929.004	20502.25
929.236	20513.25
929.469	20445.25
929.701	20382.25
929.933	20470.25
930.166	20452.25
930.398	20385.25
930.63	20409.25
930.862	20333.25
931.094	20139.25
931.327	20072.25
931.559	20019.25
931.791	19789.25
932.023	19590.25
932.255	19578.25
932.486	19430.25
932.718	19283.25
932.95	19121.25
933.182	19069.25
933.413	18953.25
933.645	18894.25
933.877	18848.25
934.108	18750.25
934.34	18669.25
934.571	18652.25
934.803	18584.25
935.034	18453.25
935.265	18447.25
935.497	18306.25
935.728	18246.25
935.959	18196.25
936.19	18126.25
936.422	18016.25
936.653	17927.25
936.884	17853.25
937.115	17726.25
937.346	17659.25
937.577	17495.25
937.807	17440.25
938.038	17340.25
938.269	17466.25
938.5	17302.25
938.73	17321.25
938.961	17259.25
939.192	17292.25
939.422	17216.25
939.653	17144.25
939.883	17169.25
940.114	17134.25
940.344	17071.25
940.574	17024.25
940.805	16957.25
941.035	16780.25
941.265	16735.25
941.495	16579.25
941.726	16465.25
941.956	16315.25
942.186	16202.25
942.416	16141.25
942.646	15944.25
942.876	15881.25
943.105	15720.25
943.335	15654.25
943.565	15529.25
943.795	15392.25
944.024	15312.25
944.254	15190.25
944.484	15176.25
944.713	14995.25
944.943	14913.25
945.172	14855.25
945.402	14877.25
945.631	14923.25
945.86	14885.25
946.09	14829.25
946.319	14792.25
946.548	14753.25
946.777	14691.25
947.006	14710.25
947.235	14598.25
947.465	14620.25
947.694	14483.25
947.922	14377.25
948.151	14255.25
948.38	14263.25
948.609	14129.25
948.838	13930.25
949.067	13847.25
949.295	13859.25
949.524	13697.25
949.752	13593.25
949.981	13601.25
950.21	13422.25
950.438	13456.25
950.666	13322.25
950.895	13228.25
951.123	13132.25
951.351	13128.25
951.58	12989.25
951.808	12938.25
952.036	12846.25
952.264	12914.25
952.492	12891.25
952.72	12780.25
952.948	12623.25
953.176	12612.25
953.404	12438.25
953.632	12337.25
953.86	12219.25
954.088	12230.25
954.315	12035.25
954.543	12052.25
954.771	11979.25
954.998	11842.25
955.226	11814.25
955.453	11829.25
955.681	11736.25
955.908	11795.25
956.135	11706.25
956.363	11668.25
956.59	11653.25
956.817	11685.25
957.045	11587.25
957.272	11598.25
957.499	11503.25
957.726	11444.25
957.953	11455.25
958.18	11367.25
958.407	11273.25
958.634	11235.25
958.861	11139.25
959.087	11031.25
959.314	11047.25
959.541	10842.25
959.767	10861.25
959.994	10765.25
960.221	10720.25
960.447	10599.25
960.674	10602.25
960.9	10440.25
961.127	10381.25
961.353	10383.25
961.579	10229.25
961.806	10224.25
962.032	10130.25
962.258	10088.25
962.484	10080.25
962.71	10010.25
962.936	9979.25
963.162	9935.25
963.388	9912.25
963.614	9920.25
963.84	9853.25
964.066	9868.25
964.292	9814.25
964.518	9840.25
964.743	9756.25
964.969	9684.25
965.195	9715.25
965.42	9665.25
965.646	9572.25
965.871	9539.25
966.097	9574.25
966.322	9447.25
966.547	9348.25
966.773	9308.25
966.998	9279.25
967.223	9261.25
967.448	9169.25
967.674	9186.25
967.899	8996.25
968.124	9060.25
968.349	9041.25
968.574	8895.25
968.799	8903.25
969.024	8888.25
969.248	8796.25
969.473	8777.25
969.698	8692.25
969.923	8584.25
970.147	8645.25
970.372	8535.25
970.596	8479.25
970.821	8494.25
971.046	8398.25
971.27	8347.25
971.494	8269.25
971.719	8231.25
971.943	8183.25
972.167	8121.25
972.392	8066.25
972.616	7983.25
972.84	7994.25
973.064	7940.25
973.288	7945.25
973.512	7872.25
973.736	7873.25
973.96	7877.25
974.184	7786.25
974.408	7861.25
974.631	7735.25
974.855	7742.25
975.079	7718.25
975.303	7624.25
975.526	7667.25
975.75	7686.25
975.973	7588.25
976.197	7549.25
976.42	7475.25
976.644	7497.25
976.867	7426.25
977.09	7325.25
977.313	7326.25
977.537	7283.25
977.76	7242.25
977.983	7231.25
978.206	7108.25
978.429	7079.25
978.652	7043.25
978.875	6900.25
979.098	6918.25
979.321	6945.25
979.544	6815.25
979.767	6861.25
979.989	6717.25
980.212	6749.25
980.435	6679.25
980.657	6690.25
980.88	6606.25
981.102	6564.25
981.325	6609.25
981.547	6472.25
981.77	6518.25
981.992	6418.25
982.214	6408.25
982.437	6412.25
982.659	6390.25
982.881	6338.25
983.103	6350.25
983.325	6302.25
983.547	6256.25
983.769	6189.25
983.991	6235.25
984.213	6133.25
984.435	6163.25
984.657	6120.25
984.879	6117.25
985.1	6112.25
985.322	6079.25
985.544	5959.25
985.765	5972.25
985.987	5943.25
986.208	5902.25
986.43	5859.25
986.651	5852.25
986.873	5808.25
987.094	5792.25
987.315	5744.25
987.536	5671.25
987.758	5666.25
987.979	5633.25
988.2	5608.25
988.421	5581.25
988.642	5524.25
988.863	5476.25
989.084	5413.25
989.305	5424.25
989.526	5377.25
989.747	5395.25
989.967	5374.25
990.188	5255.25
990.409	5225.25
990.629	5253.25
990.85	5157.25
991.071	5110.25
991.291	5185.25
991.512	5071.25
991.732	5012.25
991.952	5073.25
992.173	5002.25
992.393	5056.25
992.613	4994.25
992.834	5029.25
993.054	4976.25
993.274	4932.25
993.494	4925.25
993.714	4936.25
993.934	4871.25
994.154	4884.25
994.374	4878.25
994.594	4723.25
994.813	4831.25
995.033	4761.25
995.253	4813.25
995.473	4761.25
995.692	4733.25
995.912	4689.25
996.131	4653.25
996.351	4654.25
996.57	4541.25
996.79	4515.25
997.009	4525.25
997.228	4426.25
997.448	4410.25
997.667	4405.25
997.886	4312.25
998.105	4313.25
998.325	4278.25
998.544	4283.25
998.763	4209.25
998.982	4167.25
999.201	4172.25
999.419	4123.25
999.638	4075.25
999.857	4055.25
1000.076	4123.25
1000.295	4079.25
1000.513	4055.25
1000.732	4057.25
1000.95	3996.25
1001.169	4014.25
1001.388	3968.25
1001.606	3915.25
1001.824	3945.25
1002.043	3877.25
1002.261	3937.25
1002.479	3886.25
1002.698	3850.25
1002.916	3877.25
1003.134	3831.25
1003.352	3808.25
1003.57	3771.25
1003.788	3780.25
1004.006	3728.25
1004.224	3731.25
1004.442	3726.25
1004.66	3764.25
1004.878	3703.25
1005.095	3676.25
1005.313	3675.25
1005.531	3658.25
1005.748	3674.25
1005.966	3753.25
1006.184	3612.25
1006.401	3586.25
1006.618	3557.25
1006.836	3607.25
1007.053	3592.25
1007.271	3550.25
1007.488	3536.25
1007.705	3519.25
1007.922	3520.25
1008.139	3504.25
1008.357	3499.25
1008.574	3459.25
1008.791	3507.25
1009.008	3559.25
1009.225	3570.25
1009.441	3602.25
1009.658	3606.25
1009.875	3575.25
1010.092	3612.25
1010.309	3549.25
1010.525	3512.25
1010.742	3496.25
1010.958	3420.25
1011.175	3421.25
1011.391	3381.25
1011.608	3367.25
1011.824	3372.25
1012.041	3279.25
1012.257	3311.25
1012.473	3241.25
1012.689	3219.25
1012.906	3217.25
1013.122	3212.25
1013.338	3157.25
1013.554	3144.25
1013.77	3221.25
1013.986	3184.25
1014.202	3219.25
1014.418	3271.25
1014.634	3311.25
1014.849	3363.25
1015.065	3365.25
1015.281	3340.25
1015.496	3357.25
1015.712	3321.25
1015.928	3308.25
1016.143	3193.25
1016.359	3172.25
1016.574	3105.25
1016.79	3028.25
1017.005	3038.25
1017.22	2917.25
1017.435	2835.25
1017.651	2849.25
1017.866	2763.25
1018.081	2734.25
1018.296	2682.25
1018.511	2670.25
1018.726	2647.25
1018.941	2619.25
1019.156	2586.25
1019.371	2554.25
1019.586	2589.25
1019.801	2548.25
1020.015	2561.25
1020.23	2521.25
1020.445	2487.25
1020.659	2448.25
1020.874	2471.25
1021.088	2404.25
1021.303	2346.25
1021.517	2306.25
1021.732	2307.25
1021.946	2241.25
1022.16	2276.25
1022.375	2251.25
1022.589	2200.25
1022.803	2142.25
1023.017	2128.25
1023.231	2076.25
1023.445	2067.25
1023.659	2006.25
1023.873	1966.25
1024.087	1909.25
1024.301	1895.25
1024.515	1882.25
1024.729	1841.25
1024.942	1806.25
1025.156	1776.25
1025.37	1736.25
1025.583	1713.25
1025.797	1674.25
1026.01	1640.25
1026.224	1595.25
1026.437	1561.25
1026.651	1542.25
1026.864	1479.25
1027.077	1446.25
1027.291	1406.25
1027.504	1377.25
1027.717	1360.25
1027.93	1270.25
1028.143	1285.25
1028.356	1231.25
1028.569	1169.25
1028.782	1095.25
1028.995	-2.75
1029.208	-0.75
1029.421	-3.75
1029.634	-1.75
