Data from QEP037381__239__15-25-29-050.txt Node

Date: Mon Mar 14 15:25:29 EDT 2022
User: dcclab
Spectrometer: QEP03738
Trigger mode: 4
Integration Time (sec): 2.500000E0
Scans to average: 1
Electric dark correction enabled: true
Nonlinearity correction enabled: false
Boxcar width: 0
XAxis mode: Wavelengths
Number of Pixels in Spectrum: 1044
>>>>>Begin Spectral Data<<<<<
783.959	15.62
784.218	-1.38
784.476	-1.38
784.734	-3.38
784.992	247.62
785.251	230.62
785.509	222.62
785.767	229.62
786.025	237.62
786.283	228.62
786.541	222.62
786.798	244.62
787.056	231.62
787.314	219.62
787.572	222.62
787.83	240.62
788.087	227.62
788.345	232.62
788.602	216.62
788.86	222.62
789.117	243.62
789.375	225.62
789.632	240.62
789.89	233.62
790.147	243.62
790.404	235.62
790.661	251.62
790.919	260.62
791.176	248.62
791.433	259.62
791.69	259.62
791.947	266.62
792.204	249.62
792.461	271.62
792.718	280.62
792.974	284.62
793.231	276.62
793.488	320.62
793.745	309.62
794.001	328.62
794.258	353.62
794.514	341.62
794.771	361.62
795.027	372.62
795.284	388.62
795.54	427.62
795.797	429.62
796.053	482.62
796.309	523.62
796.565	552.62
796.822	614.62
797.078	678.62
797.334	797.62
797.59	936.62
797.846	1176.62
798.102	1489.62
798.358	1991.62
798.614	2806.62
798.869	4084.62
799.125	6045.62
799.381	8815.62
799.637	12495.62
799.892	16943.62
800.148	21817.62
800.403	26718.62
800.659	30890.62
800.914	34114.62
801.17	36329.62
801.425	37938.62
801.68	38937.62
801.936	39843.62
802.191	40630.62
802.446	41785.62
802.701	42560.62
802.957	43396.62
803.212	44402.62
803.467	45409.62
803.722	46263.62
803.977	47256.62
804.232	48136.62
804.486	49078.62
804.741	50074.62
804.996	51116.62
805.251	52125.62
805.505	52990.62
805.76	53929.62
806.015	54782.62
806.269	55393.62
806.524	56311.62
806.778	56720.62
807.033	57231.62
807.287	57829.62
807.541	58925.62
807.796	59740.62
808.05	60553.62
808.304	60934.62
808.558	61510.62
808.812	61916.62
809.066	62405.62
809.32	62898.62
809.574	63120.62
809.828	63943.62
810.082	64197.62
810.336	64716.62
810.59	65498.62
810.844	66498.62
811.097	67365.62
811.351	68425.62
811.605	69650.62
811.858	70603.62
812.112	71739.62
812.365	73007.62
812.619	74222.62
812.872	75099.62
813.126	76202.62
813.379	77239.62
813.632	78482.62
813.885	79380.62
814.139	80765.62
814.392	81908.62
814.645	83072.62
814.898	84801.62
815.151	86489.62
815.404	88099.62
815.657	89719.62
815.91	91179.62
816.163	92363.62
816.416	93470.62
816.668	94062.62
816.921	94403.62
817.174	94861.62
817.426	95031.62
817.679	94756.62
817.931	94856.62
818.184	94973.62
818.436	95155.62
818.689	95109.62
818.941	95389.62
819.194	96016.62
819.446	96354.62
819.698	96634.62
819.95	97354.62
820.202	97723.62
820.455	97949.62
820.707	98657.62
820.959	98351.62
821.211	98582.62
821.462	98369.62
821.714	98239.62
821.966	97921.62
822.218	97643.62
822.47	97197.62
822.722	96972.62
822.973	96613.62
823.225	96181.62
823.476	96250.62
823.728	96118.62
823.979	96301.62
824.231	96411.62
824.482	96471.62
824.734	96544.62
824.985	96566.62
825.236	96595.62
825.487	96423.62
825.739	96081.62
825.99	95689.62
826.241	95427.62
826.492	94988.62
826.743	94708.62
826.994	94277.62
827.245	93778.62
827.496	93982.62
827.747	93695.62
827.997	93631.62
828.248	93601.62
828.499	93893.62
828.75	94081.62
829	94076.62
829.251	93995.62
829.501	94068.62
829.752	93588.62
830.002	93021.62
830.253	92750.62
830.503	92377.62
830.753	91718.62
831.004	91238.62
831.254	90771.62
831.504	90581.62
831.754	90470.62
832.004	90325.62
832.254	90435.62
832.504	90696.62
832.754	90719.62
833.004	90401.62
833.254	90437.62
833.504	90256.62
833.754	89879.62
834.003	89678.62
834.253	89419.62
834.503	88909.62
834.752	88474.62
835.002	87979.62
835.252	87590.62
835.501	87161.62
835.75	87063.62
836	86954.62
836.249	86968.62
836.499	86819.62
836.748	86633.62
836.997	86685.62
837.246	87002.62
837.495	87242.62
837.744	87778.62
837.993	88213.62
838.242	88372.62
838.491	88181.62
838.74	87495.62
838.989	86504.62
839.238	85688.62
839.487	85192.62
839.736	84360.62
839.984	84085.62
840.233	83719.62
840.482	83210.62
840.73	82876.62
840.979	82654.62
841.227	82568.62
841.476	82255.62
841.724	82058.62
841.972	81788.62
842.221	81698.62
842.469	81357.62
842.717	81017.62
842.965	80661.62
843.213	80482.62
843.461	80402.62
843.71	79873.62
843.958	79700.62
844.205	79566.62
844.453	79378.62
844.701	79317.62
844.949	79322.62
845.197	78944.62
845.445	79179.62
845.692	79355.62
845.94	79269.62
846.188	79379.62
846.435	79424.62
846.683	79151.62
846.93	78764.62
847.178	78252.62
847.425	77735.62
847.672	77382.62
847.92	76680.62
848.167	75862.62
848.414	75299.62
848.661	74871.62
848.908	74555.62
849.155	74247.62
849.402	74153.62
849.649	74279.62
849.896	74671.62
850.143	74903.62
850.39	75258.62
850.637	75268.62
850.884	75084.62
851.131	75049.62
851.377	74783.62
851.624	74593.62
851.87	74408.62
852.117	74040.62
852.364	73614.62
852.61	73500.62
852.856	73291.62
853.103	72722.62
853.349	72501.62
853.595	72274.62
853.842	71784.62
854.088	71670.62
854.334	71920.62
854.58	71643.62
854.826	71276.62
855.072	70715.62
855.318	70428.62
855.564	69691.62
855.81	69252.62
856.056	68943.62
856.302	68094.62
856.548	67702.62
856.793	67214.62
857.039	66942.62
857.285	66696.62
857.53	66715.62
857.776	66732.62
858.021	67119.62
858.267	67288.62
858.512	67357.62
858.758	67389.62
859.003	67595.62
859.248	67464.62
859.493	67269.62
859.739	67060.62
859.984	67012.62
860.229	66609.62
860.474	66317.62
860.719	65966.62
860.964	65425.62
861.209	65151.62
861.454	64795.62
861.699	64088.62
861.943	63824.62
862.188	63803.62
862.433	63566.62
862.678	63263.62
862.922	63198.62
863.167	63079.62
863.411	62958.62
863.656	62915.62
863.9	62426.62
864.145	62406.62
864.389	62047.62
864.634	61929.62
864.878	61507.62
865.122	61598.62
865.366	61459.62
865.61	61163.62
865.855	61088.62
866.099	61022.62
866.343	61018.62
866.587	60595.62
866.831	60661.62
867.074	60584.62
867.318	60830.62
867.562	60638.62
867.806	60635.62
868.05	60391.62
868.293	60309.62
868.537	60042.62
868.78	60189.62
869.024	59603.62
869.267	59009.62
869.511	58772.62
869.754	58336.62
869.998	57819.62
870.241	57248.62
870.484	56852.62
870.728	56557.62
870.971	56200.62
871.214	56189.62
871.457	55885.62
871.7	55718.62
871.943	56001.62
872.186	56080.62
872.429	56033.62
872.672	56067.62
872.915	55953.62
873.158	55976.62
873.4	55847.62
873.643	55737.62
873.886	55405.62
874.128	55135.62
874.371	55208.62
874.613	55062.62
874.856	54792.62
875.098	54700.62
875.341	54487.62
875.583	54571.62
875.825	54206.62
876.068	54070.62
876.31	53603.62
876.552	53338.62
876.794	52782.62
877.036	52172.62
877.278	51933.62
877.52	51729.62
877.762	51526.62
878.004	51164.62
878.246	51223.62
878.488	51205.62
878.73	50984.62
878.972	51077.62
879.213	51154.62
879.455	50900.62
879.697	50810.62
879.938	50633.62
880.18	50520.62
880.421	50364.62
880.663	50360.62
880.904	50345.62
881.145	50303.62
881.387	50422.62
881.628	50558.62
881.869	50261.62
882.11	50092.62
882.352	49818.62
882.593	49689.62
882.834	49756.62
883.075	49418.62
883.316	49359.62
883.557	49239.62
883.797	48865.62
884.038	48725.62
884.279	48217.62
884.52	47349.62
884.761	47235.62
885.001	46664.62
885.242	46214.62
885.482	46007.62
885.723	45798.62
885.963	45663.62
886.204	45429.62
886.444	45129.62
886.685	45045.62
886.925	44898.62
887.165	44809.62
887.405	44469.62
887.646	44275.62
887.886	44259.62
888.126	44237.62
888.366	44198.62
888.606	44259.62
888.846	44384.62
889.086	44356.62
889.326	44291.62
889.565	44462.62
889.805	44407.62
890.045	44332.62
890.285	44238.62
890.524	44117.62
890.764	43909.62
891.003	43614.62
891.243	42992.62
891.482	42679.62
891.722	42317.62
891.961	42012.62
892.201	41806.62
892.44	41489.62
892.679	41352.62
892.918	41365.62
893.158	41113.62
893.397	41032.62
893.636	40904.62
893.875	40776.62
894.114	40633.62
894.353	40441.62
894.592	40322.62
894.831	40244.62
895.069	39907.62
895.308	39597.62
895.547	39388.62
895.786	39231.62
896.024	39169.62
896.263	39048.62
896.501	39001.62
896.74	39029.62
896.978	38903.62
897.217	38773.62
897.455	38780.62
897.694	38652.62
897.932	38556.62
898.17	38393.62
898.408	38266.62
898.646	38239.62
898.885	37905.62
899.123	37692.62
899.361	37551.62
899.599	37229.62
899.837	37081.62
900.075	36791.62
900.312	36573.62
900.55	36290.62
900.788	35950.62
901.026	35591.62
901.263	35299.62
901.501	35149.62
901.739	34943.62
901.976	34798.62
902.214	34701.62
902.451	34674.62
902.689	34566.62
902.926	34478.62
903.163	34431.62
903.401	34397.62
903.638	34506.62
903.875	34325.62
904.112	34298.62
904.349	34344.62
904.586	34214.62
904.823	34000.62
905.06	33729.62
905.297	33570.62
905.534	33372.62
905.771	33041.62
906.008	32951.62
906.245	32695.62
906.481	32376.62
906.718	32310.62
906.955	32166.62
907.191	32118.62
907.428	31945.62
907.664	31789.62
907.901	31692.62
908.137	31602.62
908.374	31364.62
908.61	31390.62
908.846	31245.62
909.083	30815.62
909.319	30878.62
909.555	30675.62
909.791	30410.62
910.027	30093.62
910.263	29809.62
910.499	29828.62
910.735	29499.62
910.971	29288.62
911.207	29126.62
911.443	28922.62
911.678	28772.62
911.914	28793.62
912.15	28764.62
912.385	28527.62
912.621	28544.62
912.857	28623.62
913.092	28422.62
913.328	28449.62
913.563	28545.62
913.798	28361.62
914.034	28336.62
914.269	28308.62
914.504	28186.62
914.739	28185.62
914.975	27971.62
915.21	27799.62
915.445	27665.62
915.68	27358.62
915.915	27067.62
916.15	26893.62
916.384	26664.62
916.619	26287.62
916.854	26116.62
917.089	26032.62
917.324	25814.62
917.558	25566.62
917.793	25504.62
918.028	25435.62
918.262	25324.62
918.497	25333.62
918.731	25181.62
918.965	25263.62
919.2	25176.62
919.434	25108.62
919.668	25164.62
919.903	25088.62
920.137	24904.62
920.371	24742.62
920.605	24644.62
920.839	24520.62
921.073	24268.62
921.307	24178.62
921.541	23955.62
921.775	23852.62
922.009	23691.62
922.243	23659.62
922.476	23640.62
922.71	23602.62
922.944	23536.62
923.177	23445.62
923.411	23565.62
923.644	23428.62
923.878	23248.62
924.111	23249.62
924.345	23133.62
924.578	23090.62
924.811	22967.62
925.045	22923.62
925.278	22669.62
925.511	22515.62
925.744	22355.62
925.977	22247.62
926.21	22057.62
926.443	21803.62
926.676	21603.62
926.909	21547.62
927.142	21399.62
927.375	21207.62
927.608	21069.62
927.841	21003.62
928.073	20987.62
928.306	20941.62
928.539	20809.62
928.771	20890.62
929.004	20870.62
929.236	20823.62
929.469	20745.62
929.701	20905.62
929.933	20905.62
930.166	20759.62
930.398	20826.62
930.63	20740.62
930.862	20774.62
931.094	20498.62
931.327	20462.62
931.559	20439.62
931.791	20296.62
932.023	20088.62
932.255	19994.62
932.486	19721.62
932.718	19620.62
932.95	19491.62
933.182	19448.62
933.413	19463.62
933.645	19105.62
933.877	19126.62
934.108	19240.62
934.34	19102.62
934.571	18948.62
934.803	18827.62
935.034	18833.62
935.265	18768.62
935.497	18745.62
935.728	18644.62
935.959	18509.62
936.19	18484.62
936.422	18390.62
936.653	18210.62
936.884	18296.62
937.115	18122.62
937.346	17932.62
937.577	17928.62
937.807	17764.62
938.038	17710.62
938.269	17632.62
938.5	17724.62
938.73	17634.62
938.961	17547.62
939.192	17501.62
939.422	17458.62
939.653	17533.62
939.883	17532.62
940.114	17472.62
940.344	17368.62
940.574	17375.62
940.805	17258.62
941.035	17153.62
941.265	17004.62
941.495	16924.62
941.726	16834.62
941.956	16638.62
942.186	16537.62
942.416	16416.62
942.646	16306.62
942.876	16182.62
943.105	16033.62
943.335	15961.62
943.565	15830.62
943.795	15634.62
944.024	15609.62
944.254	15506.62
944.484	15440.62
944.713	15337.62
944.943	15206.62
945.172	15103.62
945.402	15211.62
945.631	15081.62
945.86	15026.62
946.09	15137.62
946.319	14973.62
946.548	15020.62
946.777	15034.62
947.006	14937.62
947.235	14955.62
947.465	14822.62
947.694	14679.62
947.922	14655.62
948.151	14596.62
948.38	14455.62
948.609	14300.62
948.838	14202.62
949.067	14162.62
949.295	14025.62
949.524	13966.62
949.752	13898.62
949.981	13765.62
950.21	13722.62
950.438	13593.62
950.666	13500.62
950.895	13368.62
951.123	13392.62
951.351	13252.62
951.58	13163.62
951.808	13150.62
952.036	13083.62
952.264	13010.62
952.492	13026.62
952.72	12851.62
952.948	12871.62
953.176	12780.62
953.404	12649.62
953.632	12553.62
953.86	12494.62
954.088	12364.62
954.315	12203.62
954.543	12256.62
954.771	12162.62
954.998	12044.62
955.226	12048.62
955.453	12004.62
955.681	11921.62
955.908	11879.62
956.135	11921.62
956.363	11874.62
956.59	11804.62
956.817	11885.62
957.045	11729.62
957.272	11770.62
957.499	11674.62
957.726	11666.62
957.953	11624.62
958.18	11549.62
958.407	11419.62
958.634	11410.62
958.861	11363.62
959.087	11181.62
959.314	11109.62
959.541	11131.62
959.767	11038.62
959.994	10950.62
960.221	10923.62
960.447	10773.62
960.674	10670.62
960.9	10630.62
961.127	10466.62
961.353	10493.62
961.579	10419.62
961.806	10363.62
962.032	10309.62
962.258	10197.62
962.484	10257.62
962.71	10219.62
962.936	10175.62
963.162	10133.62
963.388	10128.62
963.614	10056.62
963.84	10142.62
964.066	10011.62
964.292	10038.62
964.518	9979.62
964.743	9831.62
964.969	9862.62
965.195	9821.62
965.42	9775.62
965.646	9694.62
965.871	9686.62
966.097	9627.62
966.322	9573.62
966.547	9548.62
966.773	9501.62
966.998	9388.62
967.223	9403.62
967.448	9418.62
967.674	9323.62
967.899	9238.62
968.124	9126.62
968.349	9112.62
968.574	9084.62
968.799	9012.62
969.024	8975.62
969.248	8920.62
969.473	8895.62
969.698	8822.62
969.923	8762.62
970.147	8709.62
970.372	8649.62
970.596	8654.62
970.821	8536.62
971.046	8553.62
971.27	8440.62
971.494	8423.62
971.719	8402.62
971.943	8303.62
972.167	8271.62
972.392	8220.62
972.616	8207.62
972.84	8065.62
973.064	8078.62
973.288	8061.62
973.512	8071.62
973.736	7971.62
973.96	7984.62
974.184	7904.62
974.408	7897.62
974.631	7897.62
974.855	7812.62
975.079	7845.62
975.303	7769.62
975.526	7748.62
975.75	7737.62
975.973	7705.62
976.197	7661.62
976.42	7604.62
976.644	7533.62
976.867	7556.62
977.09	7521.62
977.313	7408.62
977.537	7352.62
977.76	7287.62
977.983	7267.62
978.206	7216.62
978.429	7196.62
978.652	7084.62
978.875	7070.62
979.098	7019.62
979.321	7011.62
979.544	6879.62
979.767	6857.62
979.989	6831.62
980.212	6840.62
980.435	6787.62
980.657	6725.62
980.88	6736.62
981.102	6684.62
981.325	6624.62
981.547	6606.62
981.77	6538.62
981.992	6521.62
982.214	6492.62
982.437	6461.62
982.659	6458.62
982.881	6420.62
983.103	6377.62
983.325	6368.62
983.547	6330.62
983.769	6324.62
983.991	6315.62
984.213	6246.62
984.435	6240.62
984.657	6232.62
984.879	6175.62
985.1	6140.62
985.322	6117.62
985.544	6067.62
985.765	6046.62
985.987	6027.62
986.208	6010.62
986.43	5949.62
986.651	5925.62
986.873	5919.62
987.094	5853.62
987.315	5816.62
987.536	5777.62
987.758	5712.62
987.979	5693.62
988.2	5631.62
988.421	5690.62
988.642	5611.62
988.863	5552.62
989.084	5544.62
989.305	5519.62
989.526	5452.62
989.747	5437.62
989.967	5413.62
990.188	5364.62
990.409	5318.62
990.629	5318.62
990.85	5282.62
991.071	5243.62
991.291	5167.62
991.512	5124.62
991.732	5171.62
991.952	5091.62
992.173	5027.62
992.393	5037.62
992.613	5047.62
992.834	5032.62
993.054	4989.62
993.274	4991.62
993.494	4975.62
993.714	4978.62
993.934	4957.62
994.154	4948.62
994.374	4907.62
994.594	4924.62
994.813	4871.62
995.033	4842.62
995.253	4835.62
995.473	4811.62
995.692	4751.62
995.912	4715.62
996.131	4684.62
996.351	4693.62
996.57	4651.62
996.79	4599.62
997.009	4524.62
997.228	4552.62
997.448	4471.62
997.667	4394.62
997.886	4362.62
998.105	4341.62
998.325	4286.62
998.544	4294.62
998.763	4246.62
998.982	4217.62
999.201	4167.62
999.419	4189.62
999.638	4156.62
999.857	4175.62
1000.076	4149.62
1000.295	4083.62
1000.513	4104.62
1000.732	4083.62
1000.95	4016.62
1001.169	4050.62
1001.388	3992.62
1001.606	3985.62
1001.824	4033.62
1002.043	3943.62
1002.261	3966.62
1002.479	3981.62
1002.698	3952.62
1002.916	3864.62
1003.134	3884.62
1003.352	3863.62
1003.57	3879.62
1003.788	3893.62
1004.006	3838.62
1004.224	3795.62
1004.442	3754.62
1004.66	3775.62
1004.878	3744.62
1005.095	3720.62
1005.313	3729.62
1005.531	3657.62
1005.748	3685.62
1005.966	3753.62
1006.184	3644.62
1006.401	3672.62
1006.618	3640.62
1006.836	3616.62
1007.053	3610.62
1007.271	3552.62
1007.488	3547.62
1007.705	3606.62
1007.922	3489.62
1008.139	3491.62
1008.357	3555.62
1008.574	3563.62
1008.791	3562.62
1009.008	3578.62
1009.225	3577.62
1009.441	3601.62
1009.658	3607.62
1009.875	3611.62
1010.092	3614.62
1010.309	3602.62
1010.525	3494.62
1010.742	3505.62
1010.958	3476.62
1011.175	3449.62
1011.391	3380.62
1011.608	3376.62
1011.824	3368.62
1012.041	3333.62
1012.257	3292.62
1012.473	3285.62
1012.689	3236.62
1012.906	3241.62
1013.122	3248.62
1013.338	3212.62
1013.554	3159.62
1013.77	3203.62
1013.986	3198.62
1014.202	3242.62
1014.418	3247.62
1014.634	3364.62
1014.849	3377.62
1015.065	3404.62
1015.281	3392.62
1015.496	3419.62
1015.712	3337.62
1015.928	3286.62
1016.143	3281.62
1016.359	3169.62
1016.574	3134.62
1016.79	3042.62
1017.005	2996.62
1017.22	2982.62
1017.435	2853.62
1017.651	2818.62
1017.866	2802.62
1018.081	2729.62
1018.296	2684.62
1018.511	2686.62
1018.726	2680.62
1018.941	2634.62
1019.156	2616.62
1019.371	2588.62
1019.586	2596.62
1019.801	2555.62
1020.015	2520.62
1020.23	2573.62
1020.445	2519.62
1020.659	2452.62
1020.874	2430.62
1021.088	2409.62
1021.303	2379.62
1021.517	2347.62
1021.732	2286.62
1021.946	2325.62
1022.16	2275.62
1022.375	2241.62
1022.589	2192.62
1022.803	2181.62
1023.017	2108.62
1023.231	2060.62
1023.445	2074.62
1023.659	2008.62
1023.873	1979.62
1024.087	1929.62
1024.301	1885.62
1024.515	1873.62
1024.729	1869.62
1024.942	1824.62
1025.156	1812.62
1025.37	1762.62
1025.583	1727.62
1025.797	1678.62
1026.01	1654.62
1026.224	1614.62
1026.437	1588.62
1026.651	1517.62
1026.864	1473.62
1027.077	1474.62
1027.291	1414.62
1027.504	1396.62
1027.717	1335.62
1027.93	1314.62
1028.143	1294.62
1028.356	1239.62
1028.569	1183.62
1028.782	1091.62
1028.995	-2.38
1029.208	-0.38
1029.421	-3.38
1029.634	-3.38
