Data from QEP037381__273__15-30-31-553.txt Node

Date: Mon Mar 14 15:30:31 EDT 2022
User: dcclab
Spectrometer: QEP03738
Trigger mode: 4
Integration Time (sec): 2.500000E0
Scans to average: 1
Electric dark correction enabled: true
Nonlinearity correction enabled: false
Boxcar width: 0
XAxis mode: Wavelengths
Number of Pixels in Spectrum: 1044
>>>>>Begin Spectral Data<<<<<
783.959	11.75
784.218	0.75
784.476	-3.25
784.734	-5.25
784.992	255.75
785.251	259.75
785.509	237.75
785.767	241.75
786.025	233.75
786.283	243.75
786.541	250.75
786.798	240.75
787.056	230.75
787.314	230.75
787.572	228.75
787.83	235.75
788.087	242.75
788.345	233.75
788.602	240.75
788.86	233.75
789.117	232.75
789.375	237.75
789.632	225.75
789.89	220.75
790.147	261.75
790.404	246.75
790.661	259.75
790.919	263.75
791.176	259.75
791.433	269.75
791.69	267.75
791.947	277.75
792.204	252.75
792.461	278.75
792.718	293.75
792.974	274.75
793.231	295.75
793.488	324.75
793.745	329.75
794.001	339.75
794.258	369.75
794.514	357.75
794.771	393.75
795.027	388.75
795.284	415.75
795.54	439.75
795.797	442.75
796.053	503.75
796.309	527.75
796.565	585.75
796.822	640.75
797.078	713.75
797.334	842.75
797.59	993.75
797.846	1247.75
798.102	1583.75
798.358	2148.75
798.614	3074.75
798.869	4445.75
799.125	6607.75
799.381	9523.75
799.637	13491.75
799.892	18415.75
800.148	23731.75
800.403	28803.75
800.659	33152.75
800.914	36695.75
801.17	39007.75
801.425	40485.75
801.68	41684.75
801.936	42703.75
802.191	43618.75
802.446	44606.75
802.701	45552.75
802.957	46616.75
803.212	47504.75
803.467	48277.75
803.722	49322.75
803.977	50447.75
804.232	51261.75
804.486	52431.75
804.741	53231.75
804.996	54293.75
805.251	55250.75
805.505	56250.75
805.76	57194.75
806.015	58034.75
806.269	58903.75
806.524	59433.75
806.778	59995.75
807.033	60507.75
807.287	61173.75
807.541	62101.75
807.796	62734.75
808.05	63744.75
808.304	64331.75
808.558	64715.75
808.812	65144.75
809.066	65691.75
809.32	66141.75
809.574	66675.75
809.828	67202.75
810.082	67518.75
810.336	68167.75
810.59	68840.75
810.844	69823.75
811.097	70442.75
811.351	71435.75
811.605	72559.75
811.858	74058.75
812.112	74974.75
812.365	76259.75
812.619	77420.75
812.872	78381.75
813.126	79580.75
813.379	80835.75
813.632	81724.75
813.885	82629.75
814.139	84105.75
814.392	85295.75
814.645	86771.75
814.898	88171.75
815.151	89896.75
815.404	91457.75
815.657	93157.75
815.91	94390.75
816.163	95827.75
816.416	96663.75
816.668	97223.75
816.921	97930.75
817.174	98179.75
817.426	98310.75
817.679	98529.75
817.931	98083.75
818.184	98017.75
818.436	98048.75
818.689	98278.75
818.941	98579.75
819.194	98861.75
819.446	99226.75
819.698	99740.75
819.95	100000.75
820.202	100354.75
820.455	100986.75
820.707	101048.75
820.959	101187.75
821.211	101201.75
821.462	101081.75
821.714	100803.75
821.966	100352.75
822.218	99919.75
822.47	99535.75
822.722	99142.75
822.973	98760.75
823.225	98584.75
823.476	98448.75
823.728	98365.75
823.979	98426.75
824.231	98434.75
824.482	98382.75
824.734	98611.75
824.985	98486.75
825.236	98597.75
825.487	98218.75
825.739	97774.75
825.99	97369.75
826.241	97369.75
826.492	96826.75
826.743	96277.75
826.994	96157.75
827.245	95662.75
827.496	95426.75
827.747	95297.75
827.997	95217.75
828.248	95204.75
828.499	95393.75
828.75	95531.75
829	95467.75
829.251	95367.75
829.501	95422.75
829.752	94975.75
830.002	94460.75
830.253	93825.75
830.503	93586.75
830.753	92526.75
831.004	91882.75
831.254	91631.75
831.504	91559.75
831.754	91315.75
832.004	91324.75
832.254	91219.75
832.504	91457.75
832.754	91638.75
833.004	91401.75
833.254	91129.75
833.504	90968.75
833.754	90567.75
834.003	90047.75
834.253	89826.75
834.503	89236.75
834.752	88819.75
835.002	88595.75
835.252	87900.75
835.501	87910.75
835.75	87495.75
836	87582.75
836.249	87161.75
836.499	87078.75
836.748	87010.75
836.997	87021.75
837.246	87271.75
837.495	87602.75
837.744	87896.75
837.993	88091.75
838.242	88537.75
838.491	88297.75
838.74	87327.75
838.989	86303.75
839.238	85502.75
839.487	84591.75
839.736	84562.75
839.984	83861.75
840.233	83579.75
840.482	83292.75
840.73	82897.75
840.979	82578.75
841.227	82450.75
841.476	82196.75
841.724	82031.75
841.972	81611.75
842.221	81231.75
842.469	81144.75
842.717	80733.75
842.965	80693.75
843.213	80570.75
843.461	80111.75
843.71	79916.75
843.958	79249.75
844.205	79207.75
844.453	79048.75
844.701	78963.75
844.949	78784.75
845.197	78574.75
845.445	78848.75
845.692	78948.75
845.94	79080.75
846.188	78896.75
846.435	78798.75
846.683	78680.75
846.93	78198.75
847.178	77666.75
847.425	77437.75
847.672	76462.75
847.92	76175.75
848.167	75383.75
848.414	74753.75
848.661	74246.75
848.908	73832.75
849.155	73643.75
849.402	73470.75
849.649	73491.75
849.896	73814.75
850.143	74379.75
850.39	74492.75
850.637	74523.75
850.884	74510.75
851.131	74381.75
851.377	74094.75
851.624	73917.75
851.87	73213.75
852.117	73303.75
852.364	72853.75
852.61	72534.75
852.856	72363.75
853.103	72024.75
853.349	71696.75
853.595	71433.75
853.842	70795.75
854.088	70781.75
854.334	70890.75
854.58	70680.75
854.826	70393.75
855.072	69958.75
855.318	69340.75
855.564	68857.75
855.81	68199.75
856.056	67751.75
856.302	67088.75
856.548	66834.75
856.793	66187.75
857.039	66061.75
857.285	65757.75
857.53	65807.75
857.776	65832.75
858.021	66071.75
858.267	66119.75
858.512	66372.75
858.758	66374.75
859.003	66453.75
859.248	66478.75
859.493	66433.75
859.739	66074.75
859.984	65902.75
860.229	65721.75
860.474	65298.75
860.719	64746.75
860.964	64658.75
861.209	64199.75
861.454	63442.75
861.699	63316.75
861.943	62921.75
862.188	62678.75
862.433	62482.75
862.678	62144.75
862.922	62033.75
863.167	62058.75
863.411	61659.75
863.656	61667.75
863.9	61406.75
864.145	61161.75
864.389	60900.75
864.634	60639.75
864.878	60616.75
865.122	60137.75
865.366	60185.75
865.61	60026.75
865.855	59911.75
866.099	59777.75
866.343	59697.75
866.587	59645.75
866.831	59525.75
867.074	59455.75
867.318	59470.75
867.562	59403.75
867.806	59432.75
868.05	59210.75
868.293	59074.75
868.537	58850.75
868.78	58672.75
869.024	58296.75
869.267	57844.75
869.511	57534.75
869.754	57069.75
869.998	56645.75
870.241	55871.75
870.484	55607.75
870.728	55266.75
870.971	54903.75
871.214	54810.75
871.457	54548.75
871.7	54608.75
871.943	54706.75
872.186	54661.75
872.429	54675.75
872.672	54829.75
872.915	54695.75
873.158	54475.75
873.4	54555.75
873.643	54225.75
873.886	54125.75
874.128	53777.75
874.371	53699.75
874.613	53629.75
874.856	53466.75
875.098	53160.75
875.341	53223.75
875.583	52951.75
875.825	52775.75
876.068	52568.75
876.31	52224.75
876.552	51868.75
876.794	51223.75
877.036	50872.75
877.278	50583.75
877.52	50391.75
877.762	50260.75
878.004	50022.75
878.246	49926.75
878.488	49897.75
878.73	49690.75
878.972	49594.75
879.213	49664.75
879.455	49706.75
879.697	49494.75
879.938	49317.75
880.18	49159.75
880.421	49110.75
880.663	48950.75
880.904	48871.75
881.145	49062.75
881.387	49041.75
881.628	48955.75
881.869	48729.75
882.11	48643.75
882.352	48341.75
882.593	48233.75
882.834	48260.75
883.075	48037.75
883.316	47805.75
883.557	47705.75
883.797	47389.75
884.038	47039.75
884.279	46384.75
884.52	45918.75
884.761	45669.75
885.001	45308.75
885.242	44913.75
885.482	44630.75
885.723	44371.75
885.963	44196.75
886.204	44061.75
886.444	43859.75
886.685	43711.75
886.925	43406.75
887.165	43367.75
887.405	43042.75
887.646	42805.75
887.886	42880.75
888.126	42801.75
888.366	42708.75
888.606	42693.75
888.846	42831.75
889.086	42962.75
889.326	42875.75
889.565	42868.75
889.805	42862.75
890.045	42842.75
890.285	42624.75
890.524	42450.75
890.764	42313.75
891.003	41856.75
891.243	41546.75
891.482	41218.75
891.722	40766.75
891.961	40456.75
892.201	40431.75
892.44	40076.75
892.679	39854.75
892.918	39829.75
893.158	39678.75
893.397	39602.75
893.636	39322.75
893.875	39402.75
894.114	39208.75
894.353	38893.75
894.592	38801.75
894.831	38721.75
895.069	38465.75
895.308	38219.75
895.547	38022.75
895.786	37778.75
896.024	37743.75
896.263	37594.75
896.501	37603.75
896.74	37377.75
896.978	37399.75
897.217	37428.75
897.455	37279.75
897.694	37168.75
897.932	36889.75
898.17	36868.75
898.408	36890.75
898.646	36716.75
898.885	36414.75
899.123	36228.75
899.361	35966.75
899.599	35847.75
899.837	35603.75
900.075	35471.75
900.312	35196.75
900.55	34764.75
900.788	34568.75
901.026	34201.75
901.263	33999.75
901.501	33643.75
901.739	33440.75
901.976	33287.75
902.214	33205.75
902.451	33108.75
902.689	32966.75
902.926	33003.75
903.163	33019.75
903.401	33043.75
903.638	32915.75
903.875	32818.75
904.112	32851.75
904.349	32794.75
904.586	32693.75
904.823	32479.75
905.06	32426.75
905.297	32188.75
905.534	31974.75
905.771	31563.75
906.008	31512.75
906.245	31343.75
906.481	31063.75
906.718	30945.75
906.955	30891.75
907.191	30674.75
907.428	30528.75
907.664	30420.75
907.901	30331.75
908.137	30154.75
908.374	30122.75
908.61	29901.75
908.846	29772.75
909.083	29567.75
909.319	29368.75
909.555	29271.75
909.791	28897.75
910.027	28776.75
910.263	28551.75
910.499	28460.75
910.735	28100.75
910.971	27942.75
911.207	27842.75
911.443	27547.75
911.678	27498.75
911.914	27488.75
912.15	27355.75
912.385	27222.75
912.621	27236.75
912.857	27265.75
913.092	27171.75
913.328	27179.75
913.563	27164.75
913.798	27090.75
914.034	27060.75
914.269	26879.75
914.504	26824.75
914.739	26751.75
914.975	26552.75
915.21	26404.75
915.445	26213.75
915.68	25989.75
915.915	25773.75
916.15	25498.75
916.384	25295.75
916.619	24934.75
916.854	24778.75
917.089	24610.75
917.324	24688.75
917.558	24358.75
917.793	24166.75
918.028	24016.75
918.262	23980.75
918.497	23998.75
918.731	23884.75
918.965	23925.75
919.2	23982.75
919.434	23810.75
919.668	23824.75
919.903	23725.75
920.137	23538.75
920.371	23457.75
920.605	23292.75
920.839	23141.75
921.073	22956.75
921.307	22679.75
921.541	22678.75
921.775	22529.75
922.009	22271.75
922.243	22312.75
922.476	22240.75
922.71	22268.75
922.944	22318.75
923.177	22154.75
923.411	22132.75
923.644	22128.75
923.878	21887.75
924.111	21887.75
924.345	21766.75
924.578	21663.75
924.811	21588.75
925.045	21533.75
925.278	21329.75
925.511	21124.75
925.744	20955.75
925.977	20815.75
926.21	20771.75
926.443	20550.75
926.676	20259.75
926.909	20161.75
927.142	20059.75
927.375	19950.75
927.608	19754.75
927.841	19653.75
928.073	19568.75
928.306	19482.75
928.539	19477.75
928.771	19475.75
929.004	19409.75
929.236	19371.75
929.469	19453.75
929.701	19490.75
929.933	19488.75
930.166	19371.75
930.398	19334.75
930.63	19269.75
930.862	19192.75
931.094	19195.75
931.327	18975.75
931.559	18841.75
931.791	18747.75
932.023	18651.75
932.255	18484.75
932.486	18304.75
932.718	18189.75
932.95	18017.75
933.182	17988.75
933.413	17842.75
933.645	17733.75
933.877	17722.75
934.108	17615.75
934.34	17621.75
934.571	17471.75
934.803	17421.75
935.034	17330.75
935.265	17209.75
935.497	17191.75
935.728	17160.75
935.959	16970.75
936.19	17015.75
936.422	16929.75
936.653	16815.75
936.884	16678.75
937.115	16595.75
937.346	16447.75
937.577	16421.75
937.807	16274.75
938.038	16240.75
938.269	16184.75
938.5	16015.75
938.73	16083.75
938.961	16009.75
939.192	16096.75
939.422	15978.75
939.653	15978.75
939.883	15976.75
940.114	15870.75
940.344	15870.75
940.574	15730.75
940.805	15638.75
941.035	15512.75
941.265	15390.75
941.495	15358.75
941.726	15226.75
941.956	15110.75
942.186	14958.75
942.416	14818.75
942.646	14736.75
942.876	14574.75
943.105	14523.75
943.335	14392.75
943.565	14266.75
943.795	14098.75
944.024	14042.75
944.254	13883.75
944.484	13833.75
944.713	13752.75
944.943	13777.75
945.172	13682.75
945.402	13548.75
945.631	13478.75
945.86	13525.75
946.09	13453.75
946.319	13497.75
946.548	13397.75
946.777	13362.75
947.006	13301.75
947.235	13217.75
947.465	13227.75
947.694	13163.75
947.922	12971.75
948.151	12883.75
948.38	12831.75
948.609	12641.75
948.838	12577.75
949.067	12413.75
949.295	12409.75
949.524	12359.75
949.752	12256.75
949.981	12155.75
950.21	12026.75
950.438	12001.75
950.666	11894.75
950.895	11744.75
951.123	11713.75
951.351	11639.75
951.58	11599.75
951.808	11481.75
952.036	11501.75
952.264	11332.75
952.492	11280.75
952.72	11286.75
952.948	11144.75
953.176	11140.75
953.404	11016.75
953.632	10881.75
953.86	10843.75
954.088	10784.75
954.315	10663.75
954.543	10579.75
954.771	10521.75
954.998	10491.75
955.226	10449.75
955.453	10404.75
955.681	10340.75
955.908	10268.75
956.135	10320.75
956.363	10224.75
956.59	10256.75
956.817	10297.75
957.045	10113.75
957.272	10156.75
957.499	10108.75
957.726	10082.75
957.953	9998.75
958.18	9933.75
958.407	9829.75
958.634	9869.75
958.861	9707.75
959.087	9750.75
959.314	9597.75
959.541	9549.75
959.767	9515.75
959.994	9400.75
960.221	9369.75
960.447	9268.75
960.674	9199.75
960.9	9149.75
961.127	9032.75
961.353	8958.75
961.579	8960.75
961.806	8845.75
962.032	8796.75
962.258	8760.75
962.484	8740.75
962.71	8743.75
962.936	8723.75
963.162	8686.75
963.388	8622.75
963.614	8649.75
963.84	8604.75
964.066	8620.75
964.292	8534.75
964.518	8512.75
964.743	8418.75
964.969	8400.75
965.195	8366.75
965.42	8325.75
965.646	8277.75
965.871	8255.75
966.097	8232.75
966.322	8190.75
966.547	8161.75
966.773	8098.75
966.998	8061.75
967.223	8065.75
967.448	7907.75
967.674	7951.75
967.899	7871.75
968.124	7836.75
968.349	7752.75
968.574	7704.75
968.799	7675.75
969.024	7671.75
969.248	7622.75
969.473	7612.75
969.698	7565.75
969.923	7456.75
970.147	7368.75
970.372	7388.75
970.596	7300.75
970.821	7285.75
971.046	7290.75
971.27	7184.75
971.494	7160.75
971.719	7083.75
971.943	7036.75
972.167	6978.75
972.392	6906.75
972.616	6902.75
972.84	6895.75
973.064	6803.75
973.288	6842.75
973.512	6813.75
973.736	6829.75
973.96	6750.75
974.184	6671.75
974.408	6656.75
974.631	6660.75
974.855	6627.75
975.079	6617.75
975.303	6568.75
975.526	6573.75
975.75	6533.75
975.973	6491.75
976.197	6498.75
976.42	6425.75
976.644	6391.75
976.867	6325.75
977.09	6289.75
977.313	6334.75
977.537	6209.75
977.76	6207.75
977.983	6202.75
978.206	6115.75
978.429	6037.75
978.652	6049.75
978.875	5984.75
979.098	5969.75
979.321	5946.75
979.544	5883.75
979.767	5753.75
979.989	5845.75
980.212	5762.75
980.435	5738.75
980.657	5736.75
980.88	5674.75
981.102	5639.75
981.325	5610.75
981.547	5590.75
981.77	5528.75
981.992	5579.75
982.214	5530.75
982.437	5473.75
982.659	5445.75
982.881	5463.75
983.103	5424.75
983.325	5385.75
983.547	5350.75
983.769	5346.75
983.991	5275.75
984.213	5272.75
984.435	5257.75
984.657	5246.75
984.879	5230.75
985.1	5172.75
985.322	5183.75
985.544	5151.75
985.765	5119.75
985.987	5129.75
986.208	5075.75
986.43	5066.75
986.651	5032.75
986.873	4961.75
987.094	4921.75
987.315	4902.75
987.536	4875.75
987.758	4862.75
987.979	4807.75
988.2	4762.75
988.421	4787.75
988.642	4752.75
988.863	4684.75
989.084	4604.75
989.305	4616.75
989.526	4593.75
989.747	4568.75
989.967	4598.75
990.188	4530.75
990.409	4500.75
990.629	4459.75
990.85	4441.75
991.071	4397.75
991.291	4409.75
991.512	4325.75
991.732	4296.75
991.952	4303.75
992.173	4308.75
992.393	4323.75
992.613	4260.75
992.834	4271.75
993.054	4254.75
993.274	4232.75
993.494	4206.75
993.714	4199.75
993.934	4176.75
994.154	4173.75
994.374	4144.75
994.594	4114.75
994.813	4102.75
995.033	4103.75
995.253	4096.75
995.473	4074.75
995.692	4057.75
995.912	4015.75
996.131	3938.75
996.351	3987.75
996.57	3934.75
996.79	3948.75
997.009	3854.75
997.228	3831.75
997.448	3799.75
997.667	3726.75
997.886	3731.75
998.105	3701.75
998.325	3662.75
998.544	3649.75
998.763	3599.75
998.982	3594.75
999.201	3564.75
999.419	3575.75
999.638	3568.75
999.857	3493.75
1000.076	3512.75
1000.295	3443.75
1000.513	3453.75
1000.732	3464.75
1000.95	3435.75
1001.169	3499.75
1001.388	3418.75
1001.606	3361.75
1001.824	3400.75
1002.043	3386.75
1002.261	3347.75
1002.479	3394.75
1002.698	3345.75
1002.916	3340.75
1003.134	3308.75
1003.352	3276.75
1003.57	3276.75
1003.788	3264.75
1004.006	3243.75
1004.224	3255.75
1004.442	3186.75
1004.66	3200.75
1004.878	3185.75
1005.095	3190.75
1005.313	3153.75
1005.531	3153.75
1005.748	3186.75
1005.966	3217.75
1006.184	3099.75
1006.401	3117.75
1006.618	3070.75
1006.836	3089.75
1007.053	3059.75
1007.271	3100.75
1007.488	3058.75
1007.705	3072.75
1007.922	3037.75
1008.139	3013.75
1008.357	3022.75
1008.574	3026.75
1008.791	3038.75
1009.008	3126.75
1009.225	3055.75
1009.441	3152.75
1009.658	3120.75
1009.875	3106.75
1010.092	3134.75
1010.309	3079.75
1010.525	3034.75
1010.742	3022.75
1010.958	2981.75
1011.175	2977.75
1011.391	2907.75
1011.608	2938.75
1011.824	2915.75
1012.041	2889.75
1012.257	2839.75
1012.473	2848.75
1012.689	2768.75
1012.906	2766.75
1013.122	2782.75
1013.338	2741.75
1013.554	2790.75
1013.77	2754.75
1013.986	2753.75
1014.202	2808.75
1014.418	2858.75
1014.634	2881.75
1014.849	2893.75
1015.065	2929.75
1015.281	2900.75
1015.496	2958.75
1015.712	2886.75
1015.928	2843.75
1016.143	2812.75
1016.359	2772.75
1016.574	2670.75
1016.79	2637.75
1017.005	2583.75
1017.22	2532.75
1017.435	2510.75
1017.651	2483.75
1017.866	2403.75
1018.081	2392.75
1018.296	2337.75
1018.511	2327.75
1018.726	2336.75
1018.941	2273.75
1019.156	2265.75
1019.371	2229.75
1019.586	2262.75
1019.801	2235.75
1020.015	2204.75
1020.23	2216.75
1020.445	2192.75
1020.659	2151.75
1020.874	2130.75
1021.088	2090.75
1021.303	2046.75
1021.517	2045.75
1021.732	1996.75
1021.946	2015.75
1022.16	2000.75
1022.375	1975.75
1022.589	1904.75
1022.803	1908.75
1023.017	1866.75
1023.231	1824.75
1023.445	1837.75
1023.659	1747.75
1023.873	1740.75
1024.087	1711.75
1024.301	1683.75
1024.515	1660.75
1024.729	1638.75
1024.942	1582.75
1025.156	1559.75
1025.37	1530.75
1025.583	1532.75
1025.797	1482.75
1026.01	1457.75
1026.224	1413.75
1026.437	1377.75
1026.651	1345.75
1026.864	1305.75
1027.077	1301.75
1027.291	1246.75
1027.504	1228.75
1027.717	1173.75
1027.93	1133.75
1028.143	1117.75
1028.356	1094.75
1028.569	1029.75
1028.782	951.75
1028.995	1.75
1029.208	-1.25
1029.421	-2.25
1029.634	-2.25
