Data from QEP037381__295__15-31-26-544.txt Node

Date: Mon Mar 14 15:31:26 EDT 2022
User: dcclab
Spectrometer: QEP03738
Trigger mode: 4
Integration Time (sec): 2.500000E0
Scans to average: 1
Electric dark correction enabled: true
Nonlinearity correction enabled: false
Boxcar width: 0
XAxis mode: Wavelengths
Number of Pixels in Spectrum: 1044
>>>>>Begin Spectral Data<<<<<
783.959	11.88
784.218	-1.12
784.476	-0.12
784.734	-1.12
784.992	258.88
785.251	253.88
785.509	243.88
785.767	234.88
786.025	242.88
786.283	246.88
786.541	239.88
786.798	237.88
787.056	233.88
787.314	211.88
787.572	248.88
787.83	233.88
788.087	237.88
788.345	241.88
788.602	246.88
788.86	252.88
789.117	243.88
789.375	229.88
789.632	241.88
789.89	236.88
790.147	269.88
790.404	257.88
790.661	245.88
790.919	285.88
791.176	263.88
791.433	265.88
791.69	267.88
791.947	289.88
792.204	264.88
792.461	286.88
792.718	297.88
792.974	304.88
793.231	294.88
793.488	343.88
793.745	331.88
794.001	341.88
794.258	374.88
794.514	364.88
794.771	393.88
795.027	407.88
795.284	424.88
795.54	452.88
795.797	462.88
796.053	514.88
796.309	562.88
796.565	609.88
796.822	661.88
797.078	747.88
797.334	875.88
797.59	1034.88
797.846	1289.88
798.102	1654.88
798.358	2194.88
798.614	3152.88
798.869	4582.88
799.125	6818.88
799.381	9864.88
799.637	14024.88
799.892	19097.88
800.148	24447.88
800.403	29831.88
800.659	34632.88
800.914	37933.88
801.17	40590.88
801.425	42151.88
801.68	43395.88
801.936	44405.88
802.191	45206.88
802.446	46384.88
802.701	47411.88
802.957	48281.88
803.212	49342.88
803.467	50409.88
803.722	51397.88
803.977	52318.88
804.232	53338.88
804.486	54289.88
804.741	55521.88
804.996	56493.88
805.251	57604.88
805.505	58511.88
805.76	59355.88
806.015	60283.88
806.269	61025.88
806.524	61938.88
806.778	62235.88
807.033	62979.88
807.287	63946.88
807.541	64561.88
807.796	65374.88
808.05	66153.88
808.304	67018.88
808.558	67338.88
808.812	67778.88
809.066	68231.88
809.32	68780.88
809.574	69392.88
809.828	69918.88
810.082	70271.88
810.336	70958.88
810.59	71432.88
810.844	72461.88
811.097	73553.88
811.351	74280.88
811.605	75372.88
811.858	77004.88
812.112	78160.88
812.365	79255.88
812.619	80441.88
812.872	81704.88
813.126	82860.88
813.379	83849.88
813.632	85175.88
813.885	86081.88
814.139	87332.88
814.392	88371.88
814.645	89830.88
814.898	91609.88
815.151	93379.88
815.404	95296.88
815.657	96772.88
815.91	98185.88
816.163	99611.88
816.416	100371.88
816.668	100993.88
816.921	101762.88
817.174	102020.88
817.426	101991.88
817.679	101960.88
817.931	101942.88
818.184	101678.88
818.436	102125.88
818.689	102042.88
818.941	102178.88
819.194	102605.88
819.446	102954.88
819.698	103247.88
819.95	103607.88
820.202	104229.88
820.455	104661.88
820.707	105172.88
820.959	104995.88
821.211	104854.88
821.462	104852.88
821.714	104713.88
821.966	104096.88
822.218	103888.88
822.47	102961.88
822.722	102910.88
822.973	102563.88
823.225	102546.88
823.476	101911.88
823.728	101944.88
823.979	102267.88
824.231	102032.88
824.482	102188.88
824.734	102532.88
824.985	102266.88
825.236	102329.88
825.487	101883.88
825.739	101596.88
825.99	101035.88
826.241	100770.88
826.492	100326.88
826.743	99888.88
826.994	99476.88
827.245	99253.88
827.496	98960.88
827.747	98623.88
827.997	98803.88
828.248	98892.88
828.499	98824.88
828.75	98957.88
829	98921.88
829.251	98686.88
829.501	98844.88
829.752	98290.88
830.002	97929.88
830.253	97344.88
830.503	96672.88
830.753	96000.88
831.004	95402.88
831.254	95103.88
831.504	94639.88
831.754	94667.88
832.004	94452.88
832.254	94481.88
832.504	94690.88
832.754	94683.88
833.004	94606.88
833.254	94460.88
833.504	94131.88
833.754	93843.88
834.003	93531.88
834.253	93012.88
834.503	92557.88
834.752	92021.88
835.002	91664.88
835.252	91143.88
835.501	90749.88
835.75	90565.88
836	90480.88
836.249	90435.88
836.499	90196.88
836.748	90173.88
836.997	90047.88
837.246	90325.88
837.495	90372.88
837.744	91319.88
837.993	91142.88
838.242	91580.88
838.491	91249.88
838.74	90483.88
838.989	89255.88
839.238	88462.88
839.487	87743.88
839.736	87581.88
839.984	87001.88
840.233	86483.88
840.482	86098.88
840.73	85843.88
840.979	85428.88
841.227	85210.88
841.476	85073.88
841.724	84754.88
841.972	84663.88
842.221	84157.88
842.469	84085.88
842.717	83585.88
842.965	83174.88
843.213	83157.88
843.461	82941.88
843.71	82662.88
843.958	81980.88
844.205	81886.88
844.453	81773.88
844.701	81679.88
844.949	81577.88
845.197	81357.88
845.445	81364.88
845.692	81649.88
845.94	81650.88
846.188	81578.88
846.435	81363.88
846.683	81177.88
846.93	80938.88
847.178	80445.88
847.425	79956.88
847.672	79302.88
847.92	78484.88
848.167	77896.88
848.414	77090.88
848.661	76805.88
848.908	76191.88
849.155	76082.88
849.402	75680.88
849.649	76051.88
849.896	76413.88
850.143	76838.88
850.39	77127.88
850.637	76867.88
850.884	76929.88
851.131	76933.88
851.377	76530.88
851.624	76350.88
851.87	75798.88
852.117	75504.88
852.364	75491.88
852.61	74972.88
852.856	74704.88
853.103	74268.88
853.349	74065.88
853.595	73748.88
853.842	73431.88
854.088	73220.88
854.334	73222.88
854.58	73030.88
854.826	72766.88
855.072	72255.88
855.318	71772.88
855.564	71061.88
855.81	70585.88
856.056	69953.88
856.302	69373.88
856.548	68872.88
856.793	68349.88
857.039	68104.88
857.285	67942.88
857.53	67989.88
857.776	67974.88
858.021	68251.88
858.267	68445.88
858.512	68526.88
858.758	68458.88
859.003	68658.88
859.248	68730.88
859.493	68373.88
859.739	68471.88
859.984	67932.88
860.229	67681.88
860.474	67427.88
860.719	66871.88
860.964	66514.88
861.209	66112.88
861.454	65659.88
861.699	65160.88
861.943	64895.88
862.188	64609.88
862.433	64385.88
862.678	64074.88
862.922	64114.88
863.167	63960.88
863.411	63735.88
863.656	63707.88
863.9	63345.88
864.145	63199.88
864.389	62922.88
864.634	62548.88
864.878	62261.88
865.122	62138.88
865.366	61961.88
865.61	61874.88
865.855	61847.88
866.099	61669.88
866.343	61476.88
866.587	61353.88
866.831	61399.88
867.074	61227.88
867.318	61254.88
867.562	61442.88
867.806	61159.88
868.05	61040.88
868.293	60896.88
868.537	60643.88
868.78	60615.88
869.024	59991.88
869.267	59652.88
869.511	59263.88
869.754	58764.88
869.998	58359.88
870.241	57737.88
870.484	57219.88
870.728	57030.88
870.971	56697.88
871.214	56336.88
871.457	56212.88
871.7	56219.88
871.943	56419.88
872.186	56333.88
872.429	56336.88
872.672	56346.88
872.915	56338.88
873.158	56008.88
873.4	56185.88
873.643	55885.88
873.886	55717.88
874.128	55408.88
874.371	55386.88
874.613	55305.88
874.856	55031.88
875.098	54909.88
875.341	54631.88
875.583	54495.88
875.825	54388.88
876.068	54101.88
876.31	53760.88
876.552	53295.88
876.794	52844.88
877.036	52498.88
877.278	52015.88
877.52	51901.88
877.762	51673.88
878.004	51524.88
878.246	51293.88
878.488	51361.88
878.73	51278.88
878.972	51089.88
879.213	51303.88
879.455	51159.88
879.697	50989.88
879.938	50769.88
880.18	50639.88
880.421	50568.88
880.663	50451.88
880.904	50308.88
881.145	50436.88
881.387	50522.88
881.628	50364.88
881.869	50245.88
882.11	49942.88
882.352	49778.88
882.593	49682.88
882.834	49614.88
883.075	49220.88
883.316	49329.88
883.557	48930.88
883.797	48865.88
884.038	48337.88
884.279	47973.88
884.52	47303.88
884.761	46951.88
885.001	46494.88
885.242	46094.88
885.482	46004.88
885.723	45724.88
885.963	45459.88
886.204	45501.88
886.444	45208.88
886.685	45016.88
886.925	44672.88
887.165	44604.88
887.405	44198.88
887.646	44099.88
887.886	44093.88
888.126	43986.88
888.366	43901.88
888.606	44013.88
888.846	44065.88
889.086	44169.88
889.326	44055.88
889.565	44318.88
889.805	44191.88
890.045	44178.88
890.285	43898.88
890.524	43689.88
890.764	43576.88
891.003	43162.88
891.243	42749.88
891.482	42582.88
891.722	42036.88
891.961	41860.88
892.201	41585.88
892.44	41266.88
892.679	41142.88
892.918	40962.88
893.158	40797.88
893.397	40723.88
893.636	40639.88
893.875	40411.88
894.114	40332.88
894.353	40238.88
894.592	40174.88
894.831	39913.88
895.069	39577.88
895.308	39334.88
895.547	39241.88
895.786	38968.88
896.024	38887.88
896.263	38718.88
896.501	38688.88
896.74	38626.88
896.978	38620.88
897.217	38494.88
897.455	38276.88
897.694	38283.88
897.932	38155.88
898.17	37966.88
898.408	37862.88
898.646	37861.88
898.885	37527.88
899.123	37389.88
899.361	37128.88
899.599	36778.88
899.837	36801.88
900.075	36330.88
900.312	36178.88
900.55	35967.88
900.788	35612.88
901.026	35132.88
901.263	35042.88
901.501	34756.88
901.739	34358.88
901.976	34164.88
902.214	34044.88
902.451	34058.88
902.689	34042.88
902.926	33916.88
903.163	33775.88
903.401	33820.88
903.638	33912.88
903.875	33853.88
904.112	33648.88
904.349	33738.88
904.586	33615.88
904.823	33524.88
905.06	33358.88
905.297	33138.88
905.534	32849.88
905.771	32544.88
906.008	32318.88
906.245	32204.88
906.481	32138.88
906.718	31870.88
906.955	31714.88
907.191	31515.88
907.428	31350.88
907.664	31263.88
907.901	31392.88
908.137	30927.88
908.374	31019.88
908.61	30864.88
908.846	30665.88
909.083	30440.88
909.319	30312.88
909.555	30113.88
909.791	29846.88
910.027	29604.88
910.263	29416.88
910.499	29272.88
910.735	29033.88
910.971	28831.88
911.207	28697.88
911.443	28462.88
911.678	28334.88
911.914	28193.88
912.15	28164.88
912.385	28097.88
912.621	28099.88
912.857	28086.88
913.092	27947.88
913.328	27996.88
913.563	27960.88
913.798	27950.88
914.034	27931.88
914.269	27818.88
914.504	27788.88
914.739	27446.88
914.975	27352.88
915.21	27146.88
915.445	26913.88
915.68	26830.88
915.915	26370.88
916.15	26292.88
916.384	25942.88
916.619	25611.88
916.854	25452.88
917.089	25345.88
917.324	25230.88
917.558	24963.88
917.793	24909.88
918.028	24766.88
918.262	24680.88
918.497	24722.88
918.731	24589.88
918.965	24612.88
919.2	24489.88
919.434	24471.88
919.668	24451.88
919.903	24273.88
920.137	24337.88
920.371	24061.88
920.605	23898.88
920.839	23765.88
921.073	23579.88
921.307	23352.88
921.541	23206.88
921.775	23175.88
922.009	23036.88
922.243	22910.88
922.476	22867.88
922.71	22804.88
922.944	22838.88
923.177	22877.88
923.411	22792.88
923.644	22775.88
923.878	22594.88
924.111	22347.88
924.345	22406.88
924.578	22332.88
924.811	22258.88
925.045	22072.88
925.278	21942.88
925.511	21771.88
925.744	21486.88
925.977	21344.88
926.21	21181.88
926.443	21126.88
926.676	20775.88
926.909	20803.88
927.142	20642.88
927.375	20416.88
927.608	20288.88
927.841	20133.88
928.073	20155.88
928.306	20106.88
928.539	20019.88
928.771	19976.88
929.004	19916.88
929.236	20016.88
929.469	19960.88
929.701	19970.88
929.933	20051.88
930.166	19986.88
930.398	19866.88
930.63	19880.88
930.862	19798.88
931.094	19621.88
931.327	19509.88
931.559	19409.88
931.791	19301.88
932.023	19151.88
932.255	19101.88
932.486	18753.88
932.718	18704.88
932.95	18603.88
933.182	18376.88
933.413	18425.88
933.645	18314.88
933.877	18140.88
934.108	18085.88
934.34	18021.88
934.571	17932.88
934.803	17941.88
935.034	17795.88
935.265	17771.88
935.497	17692.88
935.728	17547.88
935.959	17550.88
936.19	17415.88
936.422	17215.88
936.653	17238.88
936.884	17191.88
937.115	17075.88
937.346	16895.88
937.577	16841.88
937.807	16669.88
938.038	16532.88
938.269	16594.88
938.5	16517.88
938.73	16558.88
938.961	16436.88
939.192	16372.88
939.422	16443.88
939.653	16254.88
939.883	16328.88
940.114	16288.88
940.344	16284.88
940.574	16136.88
940.805	16008.88
941.035	15926.88
941.265	15820.88
941.495	15656.88
941.726	15672.88
941.956	15490.88
942.186	15370.88
942.416	15321.88
942.646	15097.88
942.876	14869.88
943.105	14834.88
943.335	14739.88
943.565	14659.88
943.795	14445.88
944.024	14368.88
944.254	14270.88
944.484	14235.88
944.713	14058.88
944.943	14084.88
945.172	14027.88
945.402	13901.88
945.631	13804.88
945.86	13852.88
946.09	13791.88
946.319	13751.88
946.548	13747.88
946.777	13743.88
947.006	13559.88
947.235	13598.88
947.465	13555.88
947.694	13435.88
947.922	13260.88
948.151	13116.88
948.38	13102.88
948.609	12912.88
948.838	12869.88
949.067	12722.88
949.295	12766.88
949.524	12550.88
949.752	12577.88
949.981	12388.88
950.21	12282.88
950.438	12253.88
950.666	12175.88
950.895	12108.88
951.123	12026.88
951.351	11947.88
951.58	11918.88
951.808	11789.88
952.036	11737.88
952.264	11712.88
952.492	11624.88
952.72	11588.88
952.948	11475.88
953.176	11441.88
953.404	11288.88
953.632	11226.88
953.86	11095.88
954.088	10997.88
954.315	10938.88
954.543	10828.88
954.771	10791.88
954.998	10731.88
955.226	10626.88
955.453	10664.88
955.681	10625.88
955.908	10575.88
956.135	10563.88
956.363	10550.88
956.59	10493.88
956.817	10456.88
957.045	10384.88
957.272	10389.88
957.499	10395.88
957.726	10322.88
957.953	10291.88
958.18	10090.88
958.407	10183.88
958.634	10033.88
958.861	10020.88
959.087	9948.88
959.314	9848.88
959.541	9713.88
959.767	9753.88
959.994	9643.88
960.221	9629.88
960.447	9469.88
960.674	9385.88
960.9	9302.88
961.127	9249.88
961.353	9157.88
961.579	9118.88
961.806	9097.88
962.032	9062.88
962.258	9028.88
962.484	8936.88
962.71	8933.88
962.936	8947.88
963.162	8937.88
963.388	8877.88
963.614	8890.88
963.84	8744.88
964.066	8756.88
964.292	8703.88
964.518	8655.88
964.743	8628.88
964.969	8586.88
965.195	8601.88
965.42	8514.88
965.646	8454.88
965.871	8418.88
966.097	8382.88
966.322	8348.88
966.547	8319.88
966.773	8240.88
966.998	8143.88
967.223	8234.88
967.448	8114.88
967.674	8100.88
967.899	7990.88
968.124	7914.88
968.349	7950.88
968.574	7884.88
968.799	7830.88
969.024	7809.88
969.248	7757.88
969.473	7779.88
969.698	7718.88
969.923	7620.88
970.147	7592.88
970.372	7565.88
970.596	7516.88
970.821	7432.88
971.046	7413.88
971.27	7418.88
971.494	7268.88
971.719	7284.88
971.943	7198.88
972.167	7111.88
972.392	7082.88
972.616	7061.88
972.84	7036.88
973.064	6956.88
973.288	6932.88
973.512	6954.88
973.736	6953.88
973.96	6958.88
974.184	6861.88
974.408	6798.88
974.631	6823.88
974.855	6774.88
975.079	6781.88
975.303	6761.88
975.526	6719.88
975.75	6636.88
975.973	6633.88
976.197	6520.88
976.42	6572.88
976.644	6570.88
976.867	6524.88
977.09	6472.88
977.313	6386.88
977.537	6358.88
977.76	6268.88
977.983	6274.88
978.206	6219.88
978.429	6240.88
978.652	6127.88
978.875	6136.88
979.098	6024.88
979.321	6093.88
979.544	5982.88
979.767	5965.88
979.989	5894.88
980.212	5856.88
980.435	5858.88
980.657	5834.88
980.88	5785.88
981.102	5793.88
981.325	5714.88
981.547	5712.88
981.77	5691.88
981.992	5670.88
982.214	5627.88
982.437	5627.88
982.659	5559.88
982.881	5573.88
983.103	5532.88
983.325	5463.88
983.547	5437.88
983.769	5423.88
983.991	5401.88
984.213	5370.88
984.435	5339.88
984.657	5324.88
984.879	5285.88
985.1	5338.88
985.322	5269.88
985.544	5253.88
985.765	5226.88
985.987	5206.88
986.208	5189.88
986.43	5128.88
986.651	5065.88
986.873	5088.88
987.094	5040.88
987.315	5016.88
987.536	4947.88
987.758	4950.88
987.979	4927.88
988.2	4895.88
988.421	4877.88
988.642	4863.88
988.863	4783.88
989.084	4772.88
989.305	4740.88
989.526	4700.88
989.747	4658.88
989.967	4711.88
990.188	4661.88
990.409	4600.88
990.629	4538.88
990.85	4574.88
991.071	4492.88
991.291	4471.88
991.512	4430.88
991.732	4419.88
991.952	4410.88
992.173	4346.88
992.393	4391.88
992.613	4380.88
992.834	4337.88
993.054	4399.88
993.274	4314.88
993.494	4313.88
993.714	4333.88
993.934	4238.88
994.154	4235.88
994.374	4224.88
994.594	4207.88
994.813	4204.88
995.033	4190.88
995.253	4200.88
995.473	4158.88
995.692	4104.88
995.912	4080.88
996.131	4067.88
996.351	4062.88
996.57	3979.88
996.79	3961.88
997.009	3950.88
997.228	3918.88
997.448	3854.88
997.667	3844.88
997.886	3780.88
998.105	3754.88
998.325	3722.88
998.544	3752.88
998.763	3707.88
998.982	3720.88
999.201	3662.88
999.419	3596.88
999.638	3607.88
999.857	3559.88
1000.076	3598.88
1000.295	3596.88
1000.513	3564.88
1000.732	3523.88
1000.95	3496.88
1001.169	3557.88
1001.388	3460.88
1001.606	3511.88
1001.824	3454.88
1002.043	3428.88
1002.261	3465.88
1002.479	3456.88
1002.698	3394.88
1002.916	3380.88
1003.134	3368.88
1003.352	3370.88
1003.57	3362.88
1003.788	3348.88
1004.006	3304.88
1004.224	3270.88
1004.442	3273.88
1004.66	3327.88
1004.878	3259.88
1005.095	3255.88
1005.313	3285.88
1005.531	3223.88
1005.748	3183.88
1005.966	3302.88
1006.184	3227.88
1006.401	3190.88
1006.618	3138.88
1006.836	3165.88
1007.053	3125.88
1007.271	3162.88
1007.488	3100.88
1007.705	3134.88
1007.922	3144.88
1008.139	3105.88
1008.357	3058.88
1008.574	3108.88
1008.791	3102.88
1009.008	3160.88
1009.225	3174.88
1009.441	3161.88
1009.658	3165.88
1009.875	3154.88
1010.092	3168.88
1010.309	3145.88
1010.525	3050.88
1010.742	3077.88
1010.958	3059.88
1011.175	3021.88
1011.391	3008.88
1011.608	2999.88
1011.824	2975.88
1012.041	2924.88
1012.257	2923.88
1012.473	2906.88
1012.689	2844.88
1012.906	2821.88
1013.122	2801.88
1013.338	2822.88
1013.554	2838.88
1013.77	2819.88
1013.986	2836.88
1014.202	2834.88
1014.418	2895.88
1014.634	2947.88
1014.849	2967.88
1015.065	2995.88
1015.281	2960.88
1015.496	3005.88
1015.712	2935.88
1015.928	2916.88
1016.143	2809.88
1016.359	2838.88
1016.574	2747.88
1016.79	2697.88
1017.005	2689.88
1017.22	2617.88
1017.435	2534.88
1017.651	2502.88
1017.866	2494.88
1018.081	2413.88
1018.296	2387.88
1018.511	2384.88
1018.726	2397.88
1018.941	2348.88
1019.156	2290.88
1019.371	2288.88
1019.586	2321.88
1019.801	2263.88
1020.015	2231.88
1020.23	2294.88
1020.445	2203.88
1020.659	2177.88
1020.874	2194.88
1021.088	2124.88
1021.303	2111.88
1021.517	2056.88
1021.732	2029.88
1021.946	2061.88
1022.16	2026.88
1022.375	2022.88
1022.589	1946.88
1022.803	1961.88
1023.017	1905.88
1023.231	1879.88
1023.445	1886.88
1023.659	1775.88
1023.873	1780.88
1024.087	1706.88
1024.301	1726.88
1024.515	1677.88
1024.729	1650.88
1024.942	1630.88
1025.156	1634.88
1025.37	1558.88
1025.583	1545.88
1025.797	1504.88
1026.01	1510.88
1026.224	1476.88
1026.437	1406.88
1026.651	1370.88
1026.864	1320.88
1027.077	1319.88
1027.291	1284.88
1027.504	1229.88
1027.717	1203.88
1027.93	1178.88
1028.143	1151.88
1028.356	1085.88
1028.569	1041.88
1028.782	977.88
1028.995	-3.12
1029.208	-1.12
1029.421	-3.12
1029.634	-2.12
