Data from QEP037381__272__15-30-29-055.txt Node

Date: Mon Mar 14 15:30:29 EDT 2022
User: dcclab
Spectrometer: QEP03738
Trigger mode: 4
Integration Time (sec): 2.500000E0
Scans to average: 1
Electric dark correction enabled: true
Nonlinearity correction enabled: false
Boxcar width: 0
XAxis mode: Wavelengths
Number of Pixels in Spectrum: 1044
>>>>>Begin Spectral Data<<<<<
783.959	15
784.218	0
784.476	-3
784.734	-4
784.992	256
785.251	244
785.509	242
785.767	232
786.025	232
786.283	244
786.541	234
786.798	240
787.056	238
787.314	211
787.572	214
787.83	232
788.087	235
788.345	243
788.602	230
788.86	231
789.117	241
789.375	217
789.632	230
789.89	229
790.147	242
790.404	240
790.661	235
790.919	267
791.176	260
791.433	256
791.69	262
791.947	264
792.204	253
792.461	291
792.718	282
792.974	286
793.231	286
793.488	325
793.745	316
794.001	314
794.258	357
794.514	345
794.771	391
795.027	384
795.284	411
795.54	429
795.797	441
796.053	486
796.309	537
796.565	574
796.822	615
797.078	704
797.334	830
797.59	974
797.846	1224
798.102	1540
798.358	2059
798.614	2967
798.869	4300
799.125	6343
799.381	9325
799.637	13187
799.892	17853
800.148	23055
800.403	27990
800.659	32347
800.914	35699
801.17	37988
801.425	39376
801.68	40585
801.936	41250
802.191	42496
802.446	43299
802.701	44339
802.957	45202
803.212	46140
803.467	47076
803.722	47928
803.977	48891
804.232	49824
804.486	50810
804.741	51771
804.996	52862
805.251	53801
805.505	54643
805.76	55600
806.015	56526
806.269	57235
806.524	57975
806.778	58511
807.033	59049
807.287	59519
807.541	60404
807.796	61237
808.05	62082
808.304	62744
808.558	63187
808.812	63411
809.066	63948
809.32	64208
809.574	64780
809.828	65204
810.082	65847
810.336	66201
810.59	66883
810.844	67869
811.097	68682
811.351	69544
811.605	70754
811.858	72048
812.112	73186
812.365	74228
812.619	75287
812.872	76370
813.126	77471
813.379	78562
813.632	79393
813.885	80415
814.139	81882
814.392	82810
814.645	84456
814.898	85906
815.151	87426
815.404	88953
815.657	90648
815.91	92005
816.163	93337
816.416	94157
816.668	94943
816.921	95529
817.174	95605
817.426	95771
817.679	95793
817.931	95675
818.184	95445
818.436	95516
818.689	95758
818.941	95907
819.194	96107
819.446	96784
819.698	97002
819.95	97277
820.202	97794
820.455	98161
820.707	98422
820.959	98529
821.211	98610
821.462	98296
821.714	98179
821.966	97970
822.218	97308
822.47	96851
822.722	96596
822.973	96418
823.225	95988
823.476	95928
823.728	95876
823.979	96106
824.231	95825
824.482	96130
824.734	96134
824.985	96167
825.236	96079
825.487	95682
825.739	95283
825.99	95049
826.241	94924
826.492	94176
826.743	93831
826.994	93741
827.245	93258
827.496	92851
827.747	92945
827.997	92855
828.248	93037
828.499	93161
828.75	92833
829	93226
829.251	92911
829.501	92829
829.752	92467
830.002	91888
830.253	91518
830.503	90856
830.753	90390
831.004	89718
831.254	89329
831.504	89164
831.754	89146
832.004	89005
832.254	88939
832.504	89250
832.754	89015
833.004	89330
833.254	89003
833.504	88534
833.754	88319
834.003	88157
834.253	87606
834.503	87329
834.752	86728
835.002	86486
835.252	86067
835.501	85694
835.75	85331
836	85204
836.249	85374
836.499	85034
836.748	84648
836.997	84767
837.246	85148
837.495	85282
837.744	85834
837.993	86174
838.242	86568
838.491	86108
838.74	85283
838.989	84163
839.238	83605
839.487	83146
839.736	82545
839.984	82063
840.233	81784
840.482	81155
840.73	80795
840.979	80508
841.227	80392
841.476	80318
841.724	79942
841.972	79706
842.221	79766
842.469	79295
842.717	78839
842.965	78624
843.213	78422
843.461	78311
843.71	77760
843.958	77421
844.205	77244
844.453	77327
844.701	77027
844.949	77023
845.197	76685
845.445	76905
845.692	77135
845.94	77360
846.188	77199
846.435	77050
846.683	76689
846.93	76478
847.178	76058
847.425	75602
847.672	75031
847.92	74216
848.167	73581
848.414	72973
848.661	72542
848.908	72071
849.155	71856
849.402	71845
849.649	71912
849.896	72255
850.143	72558
850.39	73138
850.637	72848
850.884	72761
851.131	72577
851.377	72629
851.624	72001
851.87	71892
852.117	71541
852.364	71196
852.61	71005
852.856	70562
853.103	70293
853.349	70143
853.595	69887
853.842	69456
854.088	69061
854.334	69443
854.58	69209
854.826	68869
855.072	68238
855.318	67910
855.564	67306
855.81	66737
856.056	66302
856.302	65568
856.548	65220
856.793	64890
857.039	64514
857.285	64377
857.53	64180
857.776	64447
858.021	64730
858.267	64831
858.512	64723
858.758	65179
859.003	65017
859.248	65131
859.493	65008
859.739	65026
859.984	64360
860.229	64278
860.474	63734
860.719	63579
860.964	63047
861.209	62623
861.454	62186
861.699	61892
861.943	61461
862.188	61298
862.433	60903
862.678	60844
862.922	60837
863.167	60581
863.411	60247
863.656	60268
863.9	60176
864.145	59960
864.389	59689
864.634	59268
864.878	59073
865.122	58900
865.366	58896
865.61	58678
865.855	58534
866.099	58576
866.343	58326
866.587	58323
866.831	58010
867.074	58084
867.318	58151
867.562	58166
867.806	58043
868.05	57854
868.293	57764
868.537	57650
868.78	57325
869.024	57158
869.267	56620
869.511	56193
869.754	55722
869.998	55394
870.241	54849
870.484	54353
870.728	54166
870.971	53835
871.214	53540
871.457	53524
871.7	53324
871.943	53280
872.186	53505
872.429	53521
872.672	53528
872.915	53544
873.158	53371
873.4	53239
873.643	53154
873.886	52896
874.128	52772
874.371	52617
874.613	52549
874.856	52260
875.098	52094
875.341	52062
875.583	51937
875.825	51669
876.068	51339
876.31	50937
876.552	50735
876.794	50213
877.036	49949
877.278	49544
877.52	49239
877.762	49164
878.004	48951
878.246	48803
878.488	48804
878.73	48718
878.972	48649
879.213	48634
879.455	48687
879.697	48486
879.938	48397
880.18	48207
880.421	47959
880.663	48001
880.904	47841
881.145	48059
881.387	48023
881.628	48029
881.869	47821
882.11	47634
882.352	47366
882.593	47186
882.834	46976
883.075	46928
883.316	46794
883.557	46686
883.797	46488
884.038	46151
884.279	45474
884.52	45009
884.761	44682
885.001	44202
885.242	43961
885.482	43690
885.723	43509
885.963	43422
886.204	43118
886.444	42966
886.685	42832
886.925	42512
887.165	42415
887.405	42113
887.646	41918
887.886	41845
888.126	41949
888.366	41858
888.606	41877
888.846	41916
889.086	42103
889.326	42056
889.565	42129
889.805	42143
890.045	41898
890.285	41848
890.524	41619
890.764	41533
891.003	41080
891.243	40631
891.482	40374
891.722	40172
891.961	39735
892.201	39558
892.44	39218
892.679	39152
892.918	38906
893.158	38901
893.397	38770
893.636	38479
893.875	38651
894.114	38359
894.353	38303
894.592	38177
894.831	37885
895.069	37700
895.308	37327
895.547	37353
895.786	37017
896.024	37113
896.263	36896
896.501	36875
896.74	36790
896.978	36708
897.217	36719
897.455	36586
897.694	36396
897.932	36267
898.17	36243
898.408	36063
898.646	35870
898.885	35880
899.123	35455
899.361	35353
899.599	35037
899.837	34937
900.075	34689
900.312	34481
900.55	34146
900.788	33750
901.026	33574
901.263	33288
901.501	33073
901.739	32830
901.976	32554
902.214	32477
902.451	32320
902.689	32377
902.926	32311
903.163	32209
903.401	32285
903.638	32227
903.875	32064
904.112	32105
904.349	32021
904.586	32161
904.823	31886
905.06	31785
905.297	31503
905.534	31211
905.771	31036
906.008	30850
906.245	30736
906.481	30466
906.718	30375
906.955	30136
907.191	30143
907.428	29918
907.664	29811
907.901	29590
908.137	29540
908.374	29491
908.61	29366
908.846	29296
909.083	29031
909.319	28807
909.555	28733
909.791	28571
910.027	28218
910.263	27902
910.499	27943
910.735	27785
910.971	27369
911.207	27307
911.443	27077
911.678	26993
911.914	26869
912.15	26948
912.385	26747
912.621	26726
912.857	26814
913.092	26705
913.328	26600
913.563	26650
913.798	26482
914.034	26452
914.269	26424
914.504	26319
914.739	26338
914.975	26046
915.21	25889
915.445	25798
915.68	25617
915.915	25291
916.15	25028
916.384	24723
916.619	24391
916.854	24236
917.089	24266
917.324	23998
917.558	23710
917.793	23586
918.028	23570
918.262	23599
918.497	23491
918.731	23475
918.965	23376
919.2	23441
919.434	23281
919.668	23248
919.903	23130
920.137	23150
920.371	22924
920.605	22935
920.839	22669
921.073	22417
921.307	22315
921.541	22200
921.775	22037
922.009	21996
922.243	21939
922.476	21827
922.71	21879
922.944	21862
923.177	21807
923.411	21740
923.644	21775
923.878	21563
924.111	21382
924.345	21337
924.578	21295
924.811	21218
925.045	21105
925.278	20905
925.511	20857
925.744	20533
925.977	20439
926.21	20212
926.443	20091
926.676	19947
926.909	19804
927.142	19697
927.375	19533
927.608	19441
927.841	19274
928.073	19252
928.306	19165
928.539	19186
928.771	19031
929.004	19026
929.236	19137
929.469	19099
929.701	19013
929.933	19064
930.166	19100
930.398	18930
930.63	18922
930.862	18954
931.094	18768
931.327	18618
931.559	18568
931.791	18340
932.023	18258
932.255	18217
932.486	17934
932.718	17860
932.95	17722
933.182	17720
933.413	17618
933.645	17386
933.877	17423
934.108	17326
934.34	17221
934.571	17254
934.803	17108
935.034	17044
935.265	17008
935.497	16863
935.728	16896
935.959	16831
936.19	16610
936.422	16542
936.653	16446
936.884	16377
937.115	16291
937.346	16238
937.577	16066
937.807	16000
938.038	15856
938.269	15891
938.5	15836
938.73	15815
938.961	15769
939.192	15783
939.422	15679
939.653	15592
939.883	15595
940.114	15629
940.344	15571
940.574	15433
940.805	15394
941.035	15220
941.265	15111
941.495	14951
941.726	14914
941.956	14888
942.186	14769
942.416	14670
942.646	14466
942.876	14353
943.105	14194
943.335	14127
943.565	14042
943.795	13822
944.024	13827
944.254	13733
944.484	13565
944.713	13540
944.943	13479
945.172	13426
945.402	13417
945.631	13388
945.86	13270
946.09	13260
946.319	13173
946.548	13131
946.777	13132
947.006	13127
947.235	12994
947.465	12936
947.694	12796
947.922	12783
948.151	12642
948.38	12507
948.609	12420
948.838	12336
949.067	12312
949.295	12161
949.524	12095
949.752	11933
949.981	11940
950.21	11800
950.438	11777
950.666	11763
950.895	11641
951.123	11530
951.351	11389
951.58	11446
951.808	11310
952.036	11240
952.264	11174
952.492	11221
952.72	11048
952.948	11036
953.176	10972
953.404	10818
953.632	10753
953.86	10639
954.088	10521
954.315	10459
954.543	10408
954.771	10307
954.998	10303
955.226	10234
955.453	10170
955.681	10164
955.908	10145
956.135	10169
956.363	10130
956.59	10045
956.817	10068
957.045	10005
957.272	10003
957.499	9936
957.726	9830
957.953	9865
958.18	9768
958.407	9740
958.634	9631
958.861	9597
959.087	9533
959.314	9497
959.541	9372
959.767	9339
959.994	9245
960.221	9167
960.447	9111
960.674	9048
960.9	8980
961.127	8908
961.353	8826
961.579	8760
961.806	8732
962.032	8701
962.258	8630
962.484	8653
962.71	8599
962.936	8576
963.162	8563
963.388	8495
963.614	8464
963.84	8466
964.066	8455
964.292	8428
964.518	8329
964.743	8316
964.969	8307
965.195	8243
965.42	8180
965.646	8166
965.871	8106
966.097	8055
966.322	8095
966.547	8015
966.773	7917
966.998	7903
967.223	7864
967.448	7801
967.674	7733
967.899	7721
968.124	7663
968.349	7625
968.574	7657
968.799	7603
969.024	7523
969.248	7409
969.473	7425
969.698	7393
969.923	7329
970.147	7255
970.372	7256
970.596	7201
970.821	7175
971.046	7097
971.27	7081
971.494	7070
971.719	6976
971.943	6960
972.167	6907
972.392	6840
972.616	6817
972.84	6775
973.064	6737
973.288	6695
973.512	6737
973.736	6635
973.96	6650
974.184	6570
974.408	6524
974.631	6578
974.855	6565
975.079	6459
975.303	6487
975.526	6451
975.75	6410
975.973	6428
976.197	6313
976.42	6275
976.644	6299
976.867	6276
977.09	6202
977.313	6216
977.537	6116
977.76	6077
977.983	6088
978.206	6026
978.429	5988
978.652	5953
978.875	5898
979.098	5802
979.321	5795
979.544	5774
979.767	5748
979.989	5731
980.212	5631
980.435	5618
980.657	5558
980.88	5555
981.102	5594
981.325	5551
981.547	5468
981.77	5450
981.992	5441
982.214	5426
982.437	5461
982.659	5362
982.881	5386
983.103	5328
983.325	5331
983.547	5262
983.769	5222
983.991	5278
984.213	5181
984.435	5199
984.657	5124
984.879	5121
985.1	5157
985.322	5086
985.544	5049
985.765	4991
985.987	4973
986.208	5059
986.43	5006
986.651	4960
986.873	4909
987.094	4893
987.315	4780
987.536	4793
987.758	4756
987.979	4683
988.2	4730
988.421	4643
988.642	4608
988.863	4606
989.084	4604
989.305	4555
989.526	4567
989.747	4527
989.967	4491
990.188	4405
990.409	4405
990.629	4394
990.85	4392
991.071	4283
991.291	4346
991.512	4309
991.732	4275
991.952	4263
992.173	4197
992.393	4209
992.613	4215
992.834	4193
993.054	4168
993.274	4144
993.494	4148
993.714	4158
993.934	4115
994.154	4145
994.374	4080
994.594	4062
994.813	4084
995.033	4083
995.253	4037
995.473	4008
995.692	3944
995.912	3965
996.131	3927
996.351	3889
996.57	3869
996.79	3848
997.009	3840
997.228	3782
997.448	3748
997.667	3679
997.886	3685
998.105	3684
998.325	3633
998.544	3676
998.763	3542
998.982	3566
999.201	3488
999.419	3480
999.638	3447
999.857	3461
1000.076	3496
1000.295	3397
1000.513	3447
1000.732	3406
1000.95	3385
1001.169	3398
1001.388	3375
1001.606	3359
1001.824	3351
1002.043	3343
1002.261	3312
1002.479	3285
1002.698	3310
1002.916	3300
1003.134	3247
1003.352	3232
1003.57	3230
1003.788	3214
1004.006	3211
1004.224	3220
1004.442	3178
1004.66	3144
1004.878	3153
1005.095	3159
1005.313	3158
1005.531	3110
1005.748	3124
1005.966	3210
1006.184	3071
1006.401	3027
1006.618	3050
1006.836	3027
1007.053	3050
1007.271	3037
1007.488	3025
1007.705	3053
1007.922	3021
1008.139	2998
1008.357	3007
1008.574	2994
1008.791	3026
1009.008	3027
1009.225	3050
1009.441	3041
1009.658	3088
1009.875	3078
1010.092	3069
1010.309	3060
1010.525	3039
1010.742	2982
1010.958	2961
1011.175	2922
1011.391	2912
1011.608	2887
1011.824	2875
1012.041	2821
1012.257	2823
1012.473	2771
1012.689	2776
1012.906	2755
1013.122	2704
1013.338	2748
1013.554	2735
1013.77	2743
1013.986	2736
1014.202	2781
1014.418	2797
1014.634	2848
1014.849	2881
1015.065	2926
1015.281	2901
1015.496	2868
1015.712	2856
1015.928	2816
1016.143	2752
1016.359	2727
1016.574	2689
1016.79	2641
1017.005	2605
1017.22	2532
1017.435	2465
1017.651	2415
1017.866	2416
1018.081	2352
1018.296	2332
1018.511	2309
1018.726	2288
1018.941	2251
1019.156	2217
1019.371	2221
1019.586	2231
1019.801	2188
1020.015	2159
1020.23	2169
1020.445	2172
1020.659	2118
1020.874	2101
1021.088	2074
1021.303	2057
1021.517	2009
1021.732	2004
1021.946	1943
1022.16	1964
1022.375	1924
1022.589	1916
1022.803	1879
1023.017	1826
1023.231	1816
1023.445	1786
1023.659	1727
1023.873	1699
1024.087	1663
1024.301	1632
1024.515	1656
1024.729	1619
1024.942	1579
1025.156	1560
1025.37	1530
1025.583	1488
1025.797	1445
1026.01	1460
1026.224	1413
1026.437	1359
1026.651	1333
1026.864	1265
1027.077	1263
1027.291	1237
1027.504	1233
1027.717	1188
1027.93	1155
1028.143	1113
1028.356	1073
1028.569	1007
1028.782	944
1028.995	-5
1029.208	-3
1029.421	-1
1029.634	1
