Data from QEP037381__287__15-31-06-554.txt Node

Date: Mon Mar 14 15:31:06 EDT 2022
User: dcclab
Spectrometer: QEP03738
Trigger mode: 4
Integration Time (sec): 2.500000E0
Scans to average: 1
Electric dark correction enabled: true
Nonlinearity correction enabled: false
Boxcar width: 0
XAxis mode: Wavelengths
Number of Pixels in Spectrum: 1044
>>>>>Begin Spectral Data<<<<<
783.959	13.25
784.218	-0.75
784.476	-4.75
784.734	-0.75
784.992	256.25
785.251	241.25
785.509	234.25
785.767	245.25
786.025	256.25
786.283	251.25
786.541	247.25
786.798	244.25
787.056	233.25
787.314	222.25
787.572	237.25
787.83	229.25
788.087	244.25
788.345	240.25
788.602	228.25
788.86	232.25
789.117	245.25
789.375	240.25
789.632	251.25
789.89	241.25
790.147	262.25
790.404	248.25
790.661	249.25
790.919	276.25
791.176	266.25
791.433	247.25
791.69	282.25
791.947	286.25
792.204	260.25
792.461	291.25
792.718	292.25
792.974	290.25
793.231	304.25
793.488	328.25
793.745	324.25
794.001	340.25
794.258	367.25
794.514	355.25
794.771	395.25
795.027	404.25
795.284	411.25
795.54	449.25
795.797	455.25
796.053	504.25
796.309	542.25
796.565	605.25
796.822	677.25
797.078	737.25
797.334	861.25
797.59	1018.25
797.846	1270.25
798.102	1647.25
798.358	2196.25
798.614	3107.25
798.869	4492.25
799.125	6632.25
799.381	9755.25
799.637	13794.25
799.892	18750.25
800.148	24114.25
800.403	29455.25
800.659	33969.25
800.914	37431.25
801.17	39827.25
801.425	41412.25
801.68	42543.25
801.936	43403.25
802.191	44699.25
802.446	45554.25
802.701	46449.25
802.957	47551.25
803.212	48548.25
803.467	49419.25
803.722	50444.25
803.977	51591.25
804.232	52346.25
804.486	53380.25
804.741	54457.25
804.996	55401.25
805.251	56550.25
805.505	57715.25
805.76	58453.25
806.015	59420.25
806.269	60202.25
806.524	60902.25
806.778	61371.25
807.033	61858.25
807.287	62649.25
807.541	63546.25
807.796	64400.25
808.05	65333.25
808.304	65740.25
808.558	66125.25
808.812	66664.25
809.066	67201.25
809.32	67624.25
809.574	68081.25
809.828	68595.25
810.082	68900.25
810.336	69782.25
810.59	70361.25
810.844	71158.25
811.097	72075.25
811.351	73288.25
811.605	74219.25
811.858	75524.25
812.112	76785.25
812.365	78120.25
812.619	79270.25
812.872	80192.25
813.126	81740.25
813.379	82307.25
813.632	83593.25
813.885	84699.25
814.139	85848.25
814.392	86999.25
814.645	88664.25
814.898	90173.25
815.151	91813.25
815.404	93515.25
815.657	95159.25
815.91	96637.25
816.163	97942.25
816.416	98920.25
816.668	99610.25
816.921	100242.25
817.174	100440.25
817.426	100412.25
817.679	100410.25
817.931	100275.25
818.184	100192.25
818.436	100291.25
818.689	100422.25
818.941	100542.25
819.194	101057.25
819.446	101426.25
819.698	101653.25
819.95	102094.25
820.202	102635.25
820.455	103168.25
820.707	103210.25
820.959	103557.25
821.211	103396.25
821.462	103269.25
821.714	102998.25
821.966	102688.25
822.218	101940.25
822.47	101410.25
822.722	101241.25
822.973	101051.25
823.225	100787.25
823.476	100521.25
823.728	100581.25
823.979	100562.25
824.231	100553.25
824.482	100699.25
824.734	100922.25
824.985	100905.25
825.236	100561.25
825.487	100251.25
825.739	99832.25
825.99	99686.25
826.241	99283.25
826.492	98733.25
826.743	98655.25
826.994	97969.25
827.245	97612.25
827.496	97507.25
827.747	97459.25
827.997	97272.25
828.248	97476.25
828.499	97476.25
828.75	97403.25
829	97688.25
829.251	97377.25
829.501	97233.25
829.752	97064.25
830.002	96236.25
830.253	95877.25
830.503	95165.25
830.753	94575.25
831.004	94022.25
831.254	93717.25
831.504	93102.25
831.754	93327.25
832.004	93019.25
832.254	93302.25
832.504	93420.25
832.754	93332.25
833.004	93350.25
833.254	93029.25
833.504	92947.25
833.754	92564.25
834.003	92147.25
834.253	91545.25
834.503	91254.25
834.752	90571.25
835.002	90334.25
835.252	89944.25
835.501	89476.25
835.75	89267.25
836	89118.25
836.249	89014.25
836.499	89029.25
836.748	88666.25
836.997	88785.25
837.246	89037.25
837.495	89348.25
837.744	89831.25
837.993	90063.25
838.242	90223.25
838.491	90307.25
838.74	89267.25
838.989	88075.25
839.238	87355.25
839.487	86765.25
839.736	86080.25
839.984	85743.25
840.233	85220.25
840.482	84804.25
840.73	84781.25
840.979	84172.25
841.227	84155.25
841.476	83956.25
841.724	83818.25
841.972	83113.25
842.221	82984.25
842.469	83019.25
842.717	82525.25
842.965	82288.25
843.213	81897.25
843.461	81827.25
843.71	81280.25
843.958	80913.25
844.205	80734.25
844.453	80685.25
844.701	80696.25
844.949	80561.25
845.197	80223.25
845.445	80271.25
845.692	80480.25
845.94	80599.25
846.188	80618.25
846.435	80445.25
846.683	80124.25
846.93	80072.25
847.178	79317.25
847.425	78900.25
847.672	78108.25
847.92	77450.25
848.167	76904.25
848.414	76248.25
848.661	75606.25
848.908	75320.25
849.155	74950.25
849.402	75120.25
849.649	75053.25
849.896	75336.25
850.143	75541.25
850.39	76008.25
850.637	76013.25
850.884	75904.25
851.131	75935.25
851.377	75549.25
851.624	75345.25
851.87	75009.25
852.117	74573.25
852.364	74357.25
852.61	74019.25
852.856	73826.25
853.103	73571.25
853.349	73117.25
853.595	72798.25
853.842	72359.25
854.088	72150.25
854.334	72309.25
854.58	72059.25
854.826	71807.25
855.072	71307.25
855.318	70830.25
855.564	70173.25
855.81	69733.25
856.056	68963.25
856.302	68553.25
856.548	68039.25
856.793	67599.25
857.039	67265.25
857.285	66834.25
857.53	67181.25
857.776	67336.25
858.021	67300.25
858.267	67577.25
858.512	67623.25
858.758	67752.25
859.003	67794.25
859.248	67765.25
859.493	67508.25
859.739	67447.25
859.984	67085.25
860.229	66842.25
860.474	66401.25
860.719	66111.25
860.964	65718.25
861.209	65351.25
861.454	64796.25
861.699	64478.25
861.943	64172.25
862.188	63897.25
862.433	63561.25
862.678	63299.25
862.922	63407.25
863.167	63030.25
863.411	62944.25
863.656	62773.25
863.9	62619.25
864.145	62673.25
864.389	61992.25
864.634	61857.25
864.878	61686.25
865.122	61282.25
865.366	61148.25
865.61	61117.25
865.855	60899.25
866.099	60997.25
866.343	60840.25
866.587	60600.25
866.831	60400.25
867.074	60551.25
867.318	60293.25
867.562	60687.25
867.806	60510.25
868.05	60373.25
868.293	60120.25
868.537	59895.25
868.78	59728.25
869.024	59283.25
869.267	58900.25
869.511	58485.25
869.754	58155.25
869.998	57751.25
870.241	57056.25
870.484	56709.25
870.728	56390.25
870.971	55847.25
871.214	55810.25
871.457	55467.25
871.7	55592.25
871.943	55620.25
872.186	55659.25
872.429	55677.25
872.672	55847.25
872.915	55743.25
873.158	55476.25
873.4	55582.25
873.643	55279.25
873.886	55003.25
874.128	54875.25
874.371	54685.25
874.613	54649.25
874.856	54571.25
875.098	54324.25
875.341	54180.25
875.583	53936.25
875.825	53727.25
876.068	53576.25
876.31	53154.25
876.552	52709.25
876.794	52426.25
877.036	51777.25
877.278	51510.25
877.52	51295.25
877.762	51035.25
878.004	50848.25
878.246	50749.25
878.488	50704.25
878.73	50544.25
878.972	50546.25
879.213	50426.25
879.455	50531.25
879.697	50322.25
879.938	50236.25
880.18	50114.25
880.421	49840.25
880.663	49854.25
880.904	49706.25
881.145	49863.25
881.387	49934.25
881.628	49853.25
881.869	49591.25
882.11	49401.25
882.352	49195.25
882.593	49118.25
882.834	48892.25
883.075	48741.25
883.316	48778.25
883.557	48442.25
883.797	48413.25
884.038	47951.25
884.279	47339.25
884.52	46938.25
884.761	46406.25
885.001	46022.25
885.242	45689.25
885.482	45541.25
885.723	45073.25
885.963	45036.25
886.204	44760.25
886.444	44729.25
886.685	44550.25
886.925	44271.25
887.165	44177.25
887.405	43816.25
887.646	43741.25
887.886	43497.25
888.126	43457.25
888.366	43569.25
888.606	43459.25
888.846	43700.25
889.086	43718.25
889.326	43744.25
889.565	43666.25
889.805	43719.25
890.045	43624.25
890.285	43324.25
890.524	43309.25
890.764	43116.25
891.003	42678.25
891.243	42148.25
891.482	42054.25
891.722	41649.25
891.961	41282.25
892.201	41044.25
892.44	40624.25
892.679	40591.25
892.918	40615.25
893.158	40348.25
893.397	40270.25
893.636	40198.25
893.875	40001.25
894.114	40037.25
894.353	39684.25
894.592	39456.25
894.831	39333.25
895.069	39054.25
895.308	38919.25
895.547	38742.25
895.786	38453.25
896.024	38480.25
896.263	38203.25
896.501	38181.25
896.74	38228.25
896.978	38158.25
897.217	38062.25
897.455	37909.25
897.694	37779.25
897.932	37640.25
898.17	37520.25
898.408	37466.25
898.646	37222.25
898.885	37121.25
899.123	36975.25
899.361	36644.25
899.599	36450.25
899.837	36356.25
900.075	36082.25
900.312	35693.25
900.55	35422.25
900.788	35068.25
901.026	34748.25
901.263	34583.25
901.501	34314.25
901.739	34094.25
901.976	33937.25
902.214	33850.25
902.451	33652.25
902.689	33684.25
902.926	33518.25
903.163	33393.25
903.401	33618.25
903.638	33591.25
903.875	33551.25
904.112	33338.25
904.349	33274.25
904.586	33250.25
904.823	33221.25
905.06	33009.25
905.297	32764.25
905.534	32422.25
905.771	32247.25
906.008	32032.25
906.245	31910.25
906.481	31531.25
906.718	31544.25
906.955	31279.25
907.191	31355.25
907.428	30961.25
907.664	30957.25
907.901	30786.25
908.137	30738.25
908.374	30624.25
908.61	30409.25
908.846	30227.25
909.083	30090.25
909.319	29868.25
909.555	29796.25
909.791	29590.25
910.027	29264.25
910.263	29128.25
910.499	29025.25
910.735	28638.25
910.971	28488.25
911.207	28310.25
911.443	28063.25
911.678	28007.25
911.914	27794.25
912.15	27896.25
912.385	27718.25
912.621	27804.25
912.857	27753.25
913.092	27818.25
913.328	27656.25
913.563	27622.25
913.798	27552.25
914.034	27538.25
914.269	27409.25
914.504	27268.25
914.739	27221.25
914.975	27166.25
915.21	26900.25
915.445	26656.25
915.68	26492.25
915.915	26207.25
916.15	25944.25
916.384	25681.25
916.619	25337.25
916.854	25169.25
917.089	25089.25
917.324	24957.25
917.558	24695.25
917.793	24561.25
918.028	24443.25
918.262	24489.25
918.497	24322.25
918.731	24414.25
918.965	24328.25
919.2	24216.25
919.434	24071.25
919.668	24114.25
919.903	24021.25
920.137	23953.25
920.371	23786.25
920.605	23820.25
920.839	23592.25
921.073	23333.25
921.307	23188.25
921.541	23133.25
921.775	22752.25
922.009	22731.25
922.243	22728.25
922.476	22506.25
922.71	22574.25
922.944	22718.25
923.177	22438.25
923.411	22629.25
923.644	22560.25
923.878	22395.25
924.111	22153.25
924.345	22188.25
924.578	21942.25
924.811	21995.25
925.045	21884.25
925.278	21674.25
925.511	21431.25
925.744	21245.25
925.977	21141.25
926.21	20982.25
926.443	20748.25
926.676	20673.25
926.909	20486.25
927.142	20399.25
927.375	20250.25
927.608	20131.25
927.841	19892.25
928.073	19897.25
928.306	19822.25
928.539	19853.25
928.771	19879.25
929.004	19732.25
929.236	19793.25
929.469	19795.25
929.701	19727.25
929.933	19685.25
930.166	19819.25
930.398	19654.25
930.63	19671.25
930.862	19584.25
931.094	19385.25
931.327	19299.25
931.559	19177.25
931.791	19094.25
932.023	19006.25
932.255	18873.25
932.486	18622.25
932.718	18465.25
932.95	18296.25
933.182	18224.25
933.413	18145.25
933.645	18107.25
933.877	18049.25
934.108	18027.25
934.34	17885.25
934.571	17796.25
934.803	17765.25
935.034	17600.25
935.265	17581.25
935.497	17570.25
935.728	17458.25
935.959	17467.25
936.19	17213.25
936.422	17176.25
936.653	17141.25
936.884	16921.25
937.115	16859.25
937.346	16846.25
937.577	16671.25
937.807	16551.25
938.038	16487.25
938.269	16406.25
938.5	16352.25
938.73	16331.25
938.961	16313.25
939.192	16259.25
939.422	16176.25
939.653	16122.25
939.883	16156.25
940.114	16079.25
940.344	16092.25
940.574	15946.25
940.805	15873.25
941.035	15812.25
941.265	15615.25
941.495	15642.25
941.726	15425.25
941.956	15317.25
942.186	15298.25
942.416	15081.25
942.646	14978.25
942.876	14806.25
943.105	14680.25
943.335	14609.25
943.565	14523.25
943.795	14361.25
944.024	14190.25
944.254	14186.25
944.484	14013.25
944.713	13919.25
944.943	13888.25
945.172	13831.25
945.402	13763.25
945.631	13792.25
945.86	13724.25
946.09	13686.25
946.319	13639.25
946.548	13660.25
946.777	13603.25
947.006	13580.25
947.235	13413.25
947.465	13374.25
947.694	13291.25
947.922	13138.25
948.151	13007.25
948.38	12904.25
948.609	12837.25
948.838	12825.25
949.067	12714.25
949.295	12575.25
949.524	12507.25
949.752	12366.25
949.981	12287.25
950.21	12199.25
950.438	12273.25
950.666	12121.25
950.895	11957.25
951.123	11940.25
951.351	11791.25
951.58	11779.25
951.808	11726.25
952.036	11639.25
952.264	11586.25
952.492	11437.25
952.72	11433.25
952.948	11350.25
953.176	11307.25
953.404	11209.25
953.632	11118.25
953.86	11003.25
954.088	10888.25
954.315	10772.25
954.543	10717.25
954.771	10723.25
954.998	10682.25
955.226	10566.25
955.453	10536.25
955.681	10564.25
955.908	10469.25
956.135	10460.25
956.363	10400.25
956.59	10391.25
956.817	10373.25
957.045	10293.25
957.272	10341.25
957.499	10227.25
957.726	10223.25
957.953	10121.25
958.18	10073.25
958.407	10016.25
958.634	9980.25
958.861	9910.25
959.087	9848.25
959.314	9810.25
959.541	9767.25
959.767	9642.25
959.994	9578.25
960.221	9524.25
960.447	9407.25
960.674	9355.25
960.9	9231.25
961.127	9169.25
961.353	9089.25
961.579	9047.25
961.806	9040.25
962.032	8956.25
962.258	8907.25
962.484	8850.25
962.71	8839.25
962.936	8848.25
963.162	8814.25
963.388	8789.25
963.614	8732.25
963.84	8755.25
964.066	8665.25
964.292	8695.25
964.518	8603.25
964.743	8520.25
964.969	8547.25
965.195	8521.25
965.42	8457.25
965.646	8461.25
965.871	8365.25
966.097	8361.25
966.322	8326.25
966.547	8232.25
966.773	8222.25
966.998	8164.25
967.223	8100.25
967.448	8013.25
967.674	8007.25
967.899	7929.25
968.124	7946.25
968.349	7849.25
968.574	7851.25
968.799	7818.25
969.024	7765.25
969.248	7688.25
969.473	7665.25
969.698	7612.25
969.923	7596.25
970.147	7469.25
970.372	7512.25
970.596	7453.25
970.821	7351.25
971.046	7393.25
971.27	7326.25
971.494	7236.25
971.719	7154.25
971.943	7112.25
972.167	7110.25
972.392	7025.25
972.616	6989.25
972.84	6983.25
973.064	6899.25
973.288	6935.25
973.512	6906.25
973.736	6856.25
973.96	6877.25
974.184	6763.25
974.408	6788.25
974.631	6809.25
974.855	6769.25
975.079	6743.25
975.303	6678.25
975.526	6687.25
975.75	6629.25
975.973	6574.25
976.197	6467.25
976.42	6486.25
976.644	6541.25
976.867	6474.25
977.09	6438.25
977.313	6354.25
977.537	6355.25
977.76	6288.25
977.983	6236.25
978.206	6182.25
978.429	6146.25
978.652	6105.25
978.875	6077.25
979.098	6003.25
979.321	6006.25
979.544	5959.25
979.767	5915.25
979.989	5892.25
980.212	5775.25
980.435	5845.25
980.657	5754.25
980.88	5763.25
981.102	5684.25
981.325	5674.25
981.547	5678.25
981.77	5661.25
981.992	5600.25
982.214	5566.25
982.437	5576.25
982.659	5510.25
982.881	5548.25
983.103	5508.25
983.325	5487.25
983.547	5418.25
983.769	5426.25
983.991	5404.25
984.213	5354.25
984.435	5352.25
984.657	5337.25
984.879	5287.25
985.1	5275.25
985.322	5228.25
985.544	5226.25
985.765	5174.25
985.987	5136.25
986.208	5122.25
986.43	5144.25
986.651	5076.25
986.873	5038.25
987.094	4990.25
987.315	4989.25
987.536	4902.25
987.758	4938.25
987.979	4873.25
988.2	4836.25
988.421	4824.25
988.642	4787.25
988.863	4684.25
989.084	4726.25
989.305	4726.25
989.526	4697.25
989.747	4641.25
989.967	4615.25
990.188	4581.25
990.409	4557.25
990.629	4548.25
990.85	4525.25
991.071	4466.25
991.291	4449.25
991.512	4396.25
991.732	4393.25
991.952	4368.25
992.173	4339.25
992.393	4360.25
992.613	4294.25
992.834	4370.25
993.054	4333.25
993.274	4300.25
993.494	4265.25
993.714	4267.25
993.934	4237.25
994.154	4284.25
994.374	4196.25
994.594	4158.25
994.813	4145.25
995.033	4150.25
995.253	4154.25
995.473	4133.25
995.692	4072.25
995.912	4084.25
996.131	4039.25
996.351	4012.25
996.57	3969.25
996.79	3929.25
997.009	3885.25
997.228	3941.25
997.448	3835.25
997.667	3779.25
997.886	3816.25
998.105	3752.25
998.325	3745.25
998.544	3699.25
998.763	3688.25
998.982	3674.25
999.201	3604.25
999.419	3588.25
999.638	3608.25
999.857	3555.25
1000.076	3548.25
1000.295	3538.25
1000.513	3524.25
1000.732	3501.25
1000.95	3469.25
1001.169	3494.25
1001.388	3457.25
1001.606	3446.25
1001.824	3471.25
1002.043	3449.25
1002.261	3390.25
1002.479	3397.25
1002.698	3375.25
1002.916	3374.25
1003.134	3388.25
1003.352	3351.25
1003.57	3385.25
1003.788	3329.25
1004.006	3281.25
1004.224	3337.25
1004.442	3270.25
1004.66	3284.25
1004.878	3247.25
1005.095	3176.25
1005.313	3203.25
1005.531	3198.25
1005.748	3193.25
1005.966	3266.25
1006.184	3177.25
1006.401	3214.25
1006.618	3124.25
1006.836	3117.25
1007.053	3120.25
1007.271	3114.25
1007.488	3102.25
1007.705	3098.25
1007.922	3080.25
1008.139	3077.25
1008.357	3116.25
1008.574	3064.25
1008.791	3081.25
1009.008	3129.25
1009.225	3135.25
1009.441	3132.25
1009.658	3136.25
1009.875	3141.25
1010.092	3150.25
1010.309	3106.25
1010.525	3121.25
1010.742	3047.25
1010.958	3025.25
1011.175	3034.25
1011.391	3007.25
1011.608	2956.25
1011.824	2956.25
1012.041	2938.25
1012.257	2868.25
1012.473	2842.25
1012.689	2849.25
1012.906	2836.25
1013.122	2829.25
1013.338	2794.25
1013.554	2795.25
1013.77	2823.25
1013.986	2828.25
1014.202	2848.25
1014.418	2897.25
1014.634	2900.25
1014.849	2961.25
1015.065	2979.25
1015.281	2969.25
1015.496	2992.25
1015.712	2905.25
1015.928	2906.25
1016.143	2799.25
1016.359	2797.25
1016.574	2728.25
1016.79	2660.25
1017.005	2659.25
1017.22	2559.25
1017.435	2568.25
1017.651	2545.25
1017.866	2450.25
1018.081	2420.25
1018.296	2392.25
1018.511	2363.25
1018.726	2353.25
1018.941	2316.25
1019.156	2300.25
1019.371	2269.25
1019.586	2294.25
1019.801	2275.25
1020.015	2220.25
1020.23	2247.25
1020.445	2207.25
1020.659	2178.25
1020.874	2172.25
1021.088	2144.25
1021.303	2072.25
1021.517	2083.25
1021.732	2055.25
1021.946	2005.25
1022.16	2027.25
1022.375	1985.25
1022.589	1944.25
1022.803	1907.25
1023.017	1882.25
1023.231	1826.25
1023.445	1837.25
1023.659	1778.25
1023.873	1771.25
1024.087	1736.25
1024.301	1688.25
1024.515	1677.25
1024.729	1644.25
1024.942	1611.25
1025.156	1600.25
1025.37	1553.25
1025.583	1526.25
1025.797	1507.25
1026.01	1482.25
1026.224	1449.25
1026.437	1411.25
1026.651	1363.25
1026.864	1311.25
1027.077	1330.25
1027.291	1258.25
1027.504	1247.25
1027.717	1194.25
1027.93	1157.25
1028.143	1149.25
1028.356	1095.25
1028.569	1042.25
1028.782	975.25
1028.995	-2.75
1029.208	-3.75
1029.421	0.25
1029.634	-0.75
