Data from QEP037381__267__15-30-16-553.txt Node

Date: Mon Mar 14 15:30:16 EDT 2022
User: dcclab
Spectrometer: QEP03738
Trigger mode: 4
Integration Time (sec): 2.500000E0
Scans to average: 1
Electric dark correction enabled: true
Nonlinearity correction enabled: false
Boxcar width: 0
XAxis mode: Wavelengths
Number of Pixels in Spectrum: 1044
>>>>>Begin Spectral Data<<<<<
783.959	16.75
784.218	-0.25
784.476	-5.25
784.734	-5.25
784.992	254.75
785.251	246.75
785.509	248.75
785.767	240.75
786.025	239.75
786.283	232.75
786.541	239.75
786.798	228.75
787.056	230.75
787.314	219.75
787.572	230.75
787.83	226.75
788.087	233.75
788.345	229.75
788.602	233.75
788.86	225.75
789.117	239.75
789.375	218.75
789.632	234.75
789.89	228.75
790.147	246.75
790.404	244.75
790.661	247.75
790.919	269.75
791.176	265.75
791.433	254.75
791.69	260.75
791.947	265.75
792.204	264.75
792.461	288.75
792.718	274.75
792.974	286.75
793.231	292.75
793.488	335.75
793.745	312.75
794.001	336.75
794.258	349.75
794.514	356.75
794.771	374.75
795.027	406.75
795.284	396.75
795.54	437.75
795.797	448.75
796.053	492.75
796.309	523.75
796.565	587.75
796.822	635.75
797.078	727.75
797.334	839.75
797.59	979.75
797.846	1244.75
798.102	1604.75
798.358	2113.75
798.614	3036.75
798.869	4404.75
799.125	6494.75
799.381	9541.75
799.637	13469.75
799.892	18248.75
800.148	23491.75
800.403	28674.75
800.659	33256.75
800.914	36484.75
801.17	38811.75
801.425	40401.75
801.68	41503.75
801.936	42397.75
802.191	43376.75
802.446	44401.75
802.701	45289.75
802.957	46446.75
803.212	47244.75
803.467	48245.75
803.722	49107.75
803.977	50106.75
804.232	51027.75
804.486	52078.75
804.741	53164.75
804.996	54075.75
805.251	54978.75
805.505	56030.75
805.76	57098.75
806.015	58036.75
806.269	58559.75
806.524	59219.75
806.778	59850.75
807.033	60387.75
807.287	61050.75
807.541	61948.75
807.796	62831.75
808.05	63440.75
808.304	64061.75
808.558	64676.75
808.812	64972.75
809.066	65509.75
809.32	65893.75
809.574	66370.75
809.828	66914.75
810.082	67207.75
810.336	67814.75
810.59	68696.75
810.844	69333.75
811.097	70239.75
811.351	71063.75
811.605	72388.75
811.858	73840.75
812.112	74878.75
812.365	76117.75
812.619	77274.75
812.872	78291.75
813.126	79405.75
813.379	80360.75
813.632	81534.75
813.885	82381.75
814.139	83840.75
814.392	84963.75
814.645	86439.75
814.898	87866.75
815.151	89322.75
815.404	91117.75
815.657	92823.75
815.91	93850.75
816.163	95318.75
816.416	96171.75
816.668	97032.75
816.921	97743.75
817.174	98143.75
817.426	97974.75
817.679	97885.75
817.931	97784.75
818.184	97538.75
818.436	97722.75
818.689	97963.75
818.941	97903.75
819.194	98444.75
819.446	98567.75
819.698	99300.75
819.95	99582.75
820.202	99937.75
820.455	100432.75
820.707	100768.75
820.959	100747.75
821.211	100715.75
821.462	100601.75
821.714	100456.75
821.966	99790.75
822.218	99699.75
822.47	99115.75
822.722	98661.75
822.973	98631.75
823.225	98057.75
823.476	98118.75
823.728	98142.75
823.979	98025.75
824.231	98053.75
824.482	98116.75
824.734	98239.75
824.985	98389.75
825.236	98041.75
825.487	97805.75
825.739	97387.75
825.99	97142.75
826.241	96845.75
826.492	96410.75
826.743	95889.75
826.994	95577.75
827.245	95232.75
827.496	95126.75
827.747	95208.75
827.997	94922.75
828.248	94700.75
828.499	94934.75
828.75	95021.75
829	95048.75
829.251	95094.75
829.501	94967.75
829.752	94444.75
830.002	93920.75
830.253	93414.75
830.503	93001.75
830.753	92321.75
831.004	91504.75
831.254	91340.75
831.504	91212.75
831.754	90886.75
832.004	90890.75
832.254	90947.75
832.504	90827.75
832.754	91116.75
833.004	91044.75
833.254	90783.75
833.504	90636.75
833.754	90277.75
834.003	89572.75
834.253	89682.75
834.503	88735.75
834.752	88518.75
835.002	87978.75
835.252	87761.75
835.501	87457.75
835.75	87184.75
836	87063.75
836.249	86878.75
836.499	86759.75
836.748	86622.75
836.997	86559.75
837.246	86737.75
837.495	87004.75
837.744	87420.75
837.993	87762.75
838.242	88026.75
838.491	87782.75
838.74	86861.75
838.989	86000.75
839.238	85073.75
839.487	84493.75
839.736	84152.75
839.984	83873.75
840.233	83345.75
840.482	82676.75
840.73	82577.75
840.979	82359.75
841.227	82160.75
841.476	81995.75
841.724	81579.75
841.972	81225.75
842.221	80994.75
842.469	81066.75
842.717	80470.75
842.965	80233.75
843.213	80017.75
843.461	79738.75
843.71	79250.75
843.958	79086.75
844.205	79033.75
844.453	78753.75
844.701	78637.75
844.949	78337.75
845.197	78439.75
845.445	78581.75
845.692	78741.75
845.94	78681.75
846.188	78675.75
846.435	78620.75
846.683	78127.75
846.93	77857.75
847.178	77354.75
847.425	76704.75
847.672	76474.75
847.92	75662.75
848.167	74855.75
848.414	74414.75
848.661	73844.75
848.908	73549.75
849.155	73345.75
849.402	73063.75
849.649	73359.75
849.896	73526.75
850.143	73938.75
850.39	74416.75
850.637	74096.75
850.884	73972.75
851.131	73941.75
851.377	73695.75
851.624	73520.75
851.87	73251.75
852.117	72863.75
852.364	72612.75
852.61	72237.75
852.856	72036.75
853.103	71654.75
853.349	71388.75
853.595	71191.75
853.842	70667.75
854.088	70477.75
854.334	70404.75
854.58	70528.75
854.826	70157.75
855.072	69705.75
855.318	69122.75
855.564	68535.75
855.81	67993.75
856.056	67497.75
856.302	66859.75
856.548	66287.75
856.793	66002.75
857.039	65587.75
857.285	65633.75
857.53	65573.75
857.776	65486.75
858.021	65860.75
858.267	65998.75
858.512	65906.75
858.758	66110.75
859.003	66235.75
859.248	66259.75
859.493	65823.75
859.739	65844.75
859.984	65571.75
860.229	65443.75
860.474	65059.75
860.719	64776.75
860.964	64212.75
861.209	63822.75
861.454	63171.75
861.699	62851.75
861.943	62787.75
862.188	62393.75
862.433	62033.75
862.678	62034.75
862.922	61891.75
863.167	61597.75
863.411	61542.75
863.656	61364.75
863.9	61313.75
864.145	61105.75
864.389	60788.75
864.634	60428.75
864.878	60202.75
865.122	59844.75
865.366	60056.75
865.61	59764.75
865.855	59702.75
866.099	59603.75
866.343	59436.75
866.587	59150.75
866.831	59221.75
867.074	59234.75
867.318	59173.75
867.562	59135.75
867.806	59033.75
868.05	58895.75
868.293	58835.75
868.537	58540.75
868.78	58493.75
869.024	58013.75
869.267	57528.75
869.511	57164.75
869.754	56835.75
869.998	56489.75
870.241	55591.75
870.484	55337.75
870.728	55172.75
870.971	54673.75
871.214	54531.75
871.457	54270.75
871.7	54269.75
871.943	54320.75
872.186	54505.75
872.429	54381.75
872.672	54423.75
872.915	54423.75
873.158	54338.75
873.4	54215.75
873.643	54057.75
873.886	53857.75
874.128	53697.75
874.371	53443.75
874.613	53409.75
874.856	53139.75
875.098	52977.75
875.341	53008.75
875.583	52726.75
875.825	52497.75
876.068	52387.75
876.31	51851.75
876.552	51414.75
876.794	51179.75
877.036	50718.75
877.278	50261.75
877.52	50242.75
877.762	49893.75
878.004	49879.75
878.246	49690.75
878.488	49714.75
878.73	49562.75
878.972	49502.75
879.213	49544.75
879.455	49522.75
879.697	49316.75
879.938	49165.75
880.18	49055.75
880.421	48785.75
880.663	48601.75
880.904	48850.75
881.145	48922.75
881.387	48910.75
881.628	48716.75
881.869	48548.75
882.11	48350.75
882.352	48157.75
882.593	48050.75
882.834	47982.75
883.075	47870.75
883.316	47865.75
883.557	47402.75
883.797	47192.75
884.038	46768.75
884.279	46325.75
884.52	45785.75
884.761	45464.75
885.001	45018.75
885.242	44663.75
885.482	44507.75
885.723	44335.75
885.963	44076.75
886.204	43789.75
886.444	43685.75
886.685	43549.75
886.925	43284.75
887.165	43079.75
887.405	42849.75
887.646	42832.75
887.886	42607.75
888.126	42674.75
888.366	42661.75
888.606	42658.75
888.846	42550.75
889.086	42899.75
889.326	42818.75
889.565	42729.75
889.805	42776.75
890.045	42539.75
890.285	42427.75
890.524	42266.75
890.764	42167.75
891.003	41768.75
891.243	41222.75
891.482	41107.75
891.722	40697.75
891.961	40445.75
892.201	40275.75
892.44	39845.75
892.679	39750.75
892.918	39717.75
893.158	39461.75
893.397	39306.75
893.636	39180.75
893.875	38973.75
894.114	38916.75
894.353	38893.75
894.592	38730.75
894.831	38561.75
895.069	38342.75
895.308	38139.75
895.547	37828.75
895.786	37694.75
896.024	37627.75
896.263	37555.75
896.501	37353.75
896.74	37440.75
896.978	37348.75
897.217	37214.75
897.455	36988.75
897.694	36906.75
897.932	36883.75
898.17	36784.75
898.408	36734.75
898.646	36581.75
898.885	36224.75
899.123	36097.75
899.361	35826.75
899.599	35627.75
899.837	35403.75
900.075	35225.75
900.312	34929.75
900.55	34752.75
900.788	34397.75
901.026	34030.75
901.263	33765.75
901.501	33644.75
901.739	33411.75
901.976	33144.75
902.214	33069.75
902.451	33011.75
902.689	32839.75
902.926	32793.75
903.163	32657.75
903.401	32823.75
903.638	32798.75
903.875	32646.75
904.112	32766.75
904.349	32652.75
904.586	32464.75
904.823	32549.75
905.06	32262.75
905.297	31967.75
905.534	31810.75
905.771	31529.75
906.008	31384.75
906.245	31296.75
906.481	31027.75
906.718	30893.75
906.955	30624.75
907.191	30663.75
907.428	30356.75
907.664	30400.75
907.901	30166.75
908.137	30015.75
908.374	29964.75
908.61	29896.75
908.846	29612.75
909.083	29467.75
909.319	29417.75
909.555	29054.75
909.791	28849.75
910.027	28718.75
910.263	28402.75
910.499	28368.75
910.735	28008.75
910.971	27845.75
911.207	27765.75
911.443	27460.75
911.678	27358.75
911.914	27395.75
912.15	27291.75
912.385	27219.75
912.621	27156.75
912.857	27252.75
913.092	27097.75
913.328	27170.75
913.563	27007.75
913.798	26856.75
914.034	26940.75
914.269	26828.75
914.504	26754.75
914.739	26628.75
914.975	26521.75
915.21	26348.75
915.445	26011.75
915.68	25847.75
915.915	25598.75
916.15	25365.75
916.384	25219.75
916.619	24820.75
916.854	24665.75
917.089	24549.75
917.324	24312.75
917.558	24173.75
917.793	23968.75
918.028	23987.75
918.262	23907.75
918.497	23769.75
918.731	23846.75
918.965	23760.75
919.2	23823.75
919.434	23591.75
919.668	23566.75
919.903	23653.75
920.137	23527.75
920.371	23298.75
920.605	23197.75
920.839	22992.75
921.073	22833.75
921.307	22798.75
921.541	22496.75
921.775	22464.75
922.009	22148.75
922.243	22254.75
922.476	22156.75
922.71	22171.75
922.944	22129.75
923.177	22037.75
923.411	22024.75
923.644	21940.75
923.878	21909.75
924.111	21758.75
924.345	21700.75
924.578	21614.75
924.811	21570.75
925.045	21394.75
925.278	21250.75
925.511	21106.75
925.744	20808.75
925.977	20642.75
926.21	20563.75
926.443	20464.75
926.676	20229.75
926.909	20104.75
927.142	20023.75
927.375	19762.75
927.608	19803.75
927.841	19641.75
928.073	19520.75
928.306	19477.75
928.539	19405.75
928.771	19431.75
929.004	19424.75
929.236	19337.75
929.469	19234.75
929.701	19418.75
929.933	19394.75
930.166	19324.75
930.398	19273.75
930.63	19276.75
930.862	19105.75
931.094	19050.75
931.327	18962.75
931.559	18769.75
931.791	18701.75
932.023	18590.75
932.255	18433.75
932.486	18281.75
932.718	18169.75
932.95	17970.75
933.182	17890.75
933.413	17819.75
933.645	17742.75
933.877	17643.75
934.108	17626.75
934.34	17492.75
934.571	17461.75
934.803	17340.75
935.034	17345.75
935.265	17242.75
935.497	17222.75
935.728	17055.75
935.959	16902.75
936.19	16869.75
936.422	16856.75
936.653	16763.75
936.884	16677.75
937.115	16520.75
937.346	16396.75
937.577	16399.75
937.807	16228.75
938.038	16065.75
938.269	16131.75
938.5	16030.75
938.73	16065.75
938.961	15964.75
939.192	15932.75
939.422	15933.75
939.653	15814.75
939.883	15937.75
940.114	15843.75
940.344	15711.75
940.574	15764.75
940.805	15537.75
941.035	15536.75
941.265	15381.75
941.495	15267.75
941.726	15116.75
941.956	15044.75
942.186	14893.75
942.416	14726.75
942.646	14687.75
942.876	14565.75
943.105	14495.75
943.335	14280.75
943.565	14285.75
943.795	14076.75
944.024	13979.75
944.254	13846.75
944.484	13730.75
944.713	13743.75
944.943	13662.75
945.172	13536.75
945.402	13539.75
945.631	13451.75
945.86	13481.75
946.09	13480.75
946.319	13480.75
946.548	13401.75
946.777	13352.75
947.006	13251.75
947.235	13149.75
947.465	13168.75
947.694	13059.75
947.922	12985.75
948.151	12766.75
948.38	12721.75
948.609	12593.75
948.838	12463.75
949.067	12466.75
949.295	12378.75
949.524	12225.75
949.752	12170.75
949.981	12015.75
950.21	11959.75
950.438	11929.75
950.666	11791.75
950.895	11738.75
951.123	11650.75
951.351	11601.75
951.58	11576.75
951.808	11409.75
952.036	11440.75
952.264	11323.75
952.492	11290.75
952.72	11204.75
952.948	11174.75
953.176	11048.75
953.404	11035.75
953.632	10896.75
953.86	10816.75
954.088	10695.75
954.315	10579.75
954.543	10641.75
954.771	10574.75
954.998	10407.75
955.226	10439.75
955.453	10383.75
955.681	10279.75
955.908	10249.75
956.135	10250.75
956.363	10245.75
956.59	10168.75
956.817	10171.75
957.045	10153.75
957.272	10135.75
957.499	10050.75
957.726	9942.75
957.953	9911.75
958.18	9862.75
958.407	9844.75
958.634	9826.75
958.861	9755.75
959.087	9691.75
959.314	9654.75
959.541	9473.75
959.767	9422.75
959.994	9345.75
960.221	9257.75
960.447	9193.75
960.674	9153.75
960.9	9106.75
961.127	9059.75
961.353	8989.75
961.579	8910.75
961.806	8896.75
962.032	8797.75
962.258	8770.75
962.484	8645.75
962.71	8670.75
962.936	8696.75
963.162	8641.75
963.388	8530.75
963.614	8613.75
963.84	8603.75
964.066	8456.75
964.292	8494.75
964.518	8473.75
964.743	8370.75
964.969	8338.75
965.195	8326.75
965.42	8209.75
965.646	8240.75
965.871	8207.75
966.097	8173.75
966.322	8117.75
966.547	8126.75
966.773	8019.75
966.998	8009.75
967.223	7955.75
967.448	7926.75
967.674	7903.75
967.899	7827.75
968.124	7711.75
968.349	7772.75
968.574	7668.75
968.799	7655.75
969.024	7618.75
969.248	7551.75
969.473	7572.75
969.698	7534.75
969.923	7424.75
970.147	7443.75
970.372	7339.75
970.596	7331.75
970.821	7242.75
971.046	7241.75
971.27	7210.75
971.494	7120.75
971.719	7112.75
971.943	7018.75
972.167	7016.75
972.392	6917.75
972.616	6933.75
972.84	6816.75
973.064	6846.75
973.288	6784.75
973.512	6782.75
973.736	6686.75
973.96	6730.75
974.184	6671.75
974.408	6657.75
974.631	6639.75
974.855	6655.75
975.079	6612.75
975.303	6588.75
975.526	6541.75
975.75	6455.75
975.973	6456.75
976.197	6439.75
976.42	6481.75
976.644	6397.75
976.867	6321.75
977.09	6349.75
977.313	6304.75
977.537	6176.75
977.76	6127.75
977.983	6125.75
978.206	6087.75
978.429	6027.75
978.652	6037.75
978.875	5913.75
979.098	5958.75
979.321	5892.75
979.544	5848.75
979.767	5830.75
979.989	5777.75
980.212	5730.75
980.435	5711.75
980.657	5686.75
980.88	5649.75
981.102	5591.75
981.325	5585.75
981.547	5574.75
981.77	5510.75
981.992	5512.75
982.214	5428.75
982.437	5480.75
982.659	5390.75
982.881	5469.75
983.103	5360.75
983.325	5409.75
983.547	5386.75
983.769	5347.75
983.991	5270.75
984.213	5290.75
984.435	5276.75
984.657	5201.75
984.879	5223.75
985.1	5196.75
985.322	5135.75
985.544	5107.75
985.765	5108.75
985.987	5062.75
986.208	5046.75
986.43	5023.75
986.651	4987.75
986.873	4960.75
987.094	4913.75
987.315	4916.75
987.536	4892.75
987.758	4827.75
987.979	4764.75
988.2	4786.75
988.421	4745.75
988.642	4739.75
988.863	4649.75
989.084	4622.75
989.305	4655.75
989.526	4597.75
989.747	4589.75
989.967	4541.75
990.188	4526.75
990.409	4494.75
990.629	4428.75
990.85	4449.75
991.071	4401.75
991.291	4383.75
991.512	4322.75
991.732	4288.75
991.952	4309.75
992.173	4274.75
992.393	4325.75
992.613	4235.75
992.834	4271.75
993.054	4219.75
993.274	4210.75
993.494	4199.75
993.714	4147.75
993.934	4200.75
994.154	4101.75
994.374	4130.75
994.594	4090.75
994.813	4125.75
995.033	4068.75
995.253	4082.75
995.473	4045.75
995.692	4005.75
995.912	3995.75
996.131	3961.75
996.351	3971.75
996.57	3908.75
996.79	3906.75
997.009	3814.75
997.228	3826.75
997.448	3794.75
997.667	3795.75
997.886	3674.75
998.105	3703.75
998.325	3635.75
998.544	3640.75
998.763	3622.75
998.982	3596.75
999.201	3532.75
999.419	3547.75
999.638	3527.75
999.857	3484.75
1000.076	3497.75
1000.295	3456.75
1000.513	3479.75
1000.732	3458.75
1000.95	3415.75
1001.169	3458.75
1001.388	3432.75
1001.606	3413.75
1001.824	3373.75
1002.043	3303.75
1002.261	3403.75
1002.479	3340.75
1002.698	3322.75
1002.916	3297.75
1003.134	3296.75
1003.352	3269.75
1003.57	3281.75
1003.788	3304.75
1004.006	3257.75
1004.224	3253.75
1004.442	3189.75
1004.66	3206.75
1004.878	3205.75
1005.095	3199.75
1005.313	3138.75
1005.531	3155.75
1005.748	3134.75
1005.966	3216.75
1006.184	3120.75
1006.401	3127.75
1006.618	3044.75
1006.836	3058.75
1007.053	3088.75
1007.271	3098.75
1007.488	3073.75
1007.705	3041.75
1007.922	3057.75
1008.139	3022.75
1008.357	3054.75
1008.574	3048.75
1008.791	3059.75
1009.008	3064.75
1009.225	3090.75
1009.441	3134.75
1009.658	3128.75
1009.875	3103.75
1010.092	3083.75
1010.309	3079.75
1010.525	3083.75
1010.742	3025.75
1010.958	2923.75
1011.175	2977.75
1011.391	2944.75
1011.608	2941.75
1011.824	2877.75
1012.041	2837.75
1012.257	2823.75
1012.473	2789.75
1012.689	2794.75
1012.906	2786.75
1013.122	2745.75
1013.338	2733.75
1013.554	2782.75
1013.77	2751.75
1013.986	2737.75
1014.202	2804.75
1014.418	2845.75
1014.634	2919.75
1014.849	2907.75
1015.065	2934.75
1015.281	2903.75
1015.496	2903.75
1015.712	2878.75
1015.928	2835.75
1016.143	2761.75
1016.359	2733.75
1016.574	2711.75
1016.79	2623.75
1017.005	2605.75
1017.22	2545.75
1017.435	2490.75
1017.651	2460.75
1017.866	2427.75
1018.081	2377.75
1018.296	2334.75
1018.511	2317.75
1018.726	2272.75
1018.941	2275.75
1019.156	2261.75
1019.371	2245.75
1019.586	2274.75
1019.801	2232.75
1020.015	2177.75
1020.23	2239.75
1020.445	2191.75
1020.659	2139.75
1020.874	2135.75
1021.088	2087.75
1021.303	2058.75
1021.517	2015.75
1021.732	2022.75
1021.946	1983.75
1022.16	1995.75
1022.375	1948.75
1022.589	1934.75
1022.803	1882.75
1023.017	1869.75
1023.231	1845.75
1023.445	1806.75
1023.659	1759.75
1023.873	1724.75
1024.087	1672.75
1024.301	1680.75
1024.515	1640.75
1024.729	1635.75
1024.942	1613.75
1025.156	1571.75
1025.37	1528.75
1025.583	1521.75
1025.797	1476.75
1026.01	1454.75
1026.224	1424.75
1026.437	1386.75
1026.651	1339.75
1026.864	1288.75
1027.077	1290.75
1027.291	1246.75
1027.504	1236.75
1027.717	1183.75
1027.93	1176.75
1028.143	1129.75
1028.356	1089.75
1028.569	1013.75
1028.782	954.75
1028.995	-4.25
1029.208	0.75
1029.421	-2.25
1029.634	-0.25
