Data from QEP037381__271__15-30-26-554.txt Node

Date: Mon Mar 14 15:30:26 EDT 2022
User: dcclab
Spectrometer: QEP03738
Trigger mode: 4
Integration Time (sec): 2.500000E0
Scans to average: 1
Electric dark correction enabled: true
Nonlinearity correction enabled: false
Boxcar width: 0
XAxis mode: Wavelengths
Number of Pixels in Spectrum: 1044
>>>>>Begin Spectral Data<<<<<
783.959	11.25
784.218	2.25
784.476	-2.75
784.734	-3.75
784.992	250.25
785.251	237.25
785.509	246.25
785.767	221.25
786.025	236.25
786.283	234.25
786.541	228.25
786.798	227.25
787.056	222.25
787.314	209.25
787.572	218.25
787.83	224.25
788.087	230.25
788.345	221.25
788.602	221.25
788.86	218.25
789.117	229.25
789.375	216.25
789.632	229.25
789.89	211.25
790.147	241.25
790.404	236.25
790.661	238.25
790.919	254.25
791.176	258.25
791.433	245.25
791.69	255.25
791.947	250.25
792.204	251.25
792.461	258.25
792.718	262.25
792.974	270.25
793.231	272.25
793.488	308.25
793.745	281.25
794.001	307.25
794.258	346.25
794.514	330.25
794.771	361.25
795.027	361.25
795.284	390.25
795.54	403.25
795.797	434.25
796.053	455.25
796.309	505.25
796.565	533.25
796.822	596.25
797.078	667.25
797.334	781.25
797.59	931.25
797.846	1143.25
798.102	1460.25
798.358	1947.25
798.614	2781.25
798.869	4071.25
799.125	5947.25
799.381	8699.25
799.637	12375.25
799.892	16834.25
800.148	21551.25
800.403	26227.25
800.659	30282.25
800.914	33219.25
801.17	35347.25
801.425	36858.25
801.68	37900.25
801.936	38589.25
802.191	39468.25
802.446	40488.25
802.701	41092.25
802.957	42232.25
803.212	42997.25
803.467	43991.25
803.722	44821.25
803.977	45748.25
804.232	46449.25
804.486	47470.25
804.741	48346.25
804.996	49179.25
805.251	50262.25
805.505	51146.25
805.76	52029.25
806.015	52744.25
806.269	53600.25
806.524	54031.25
806.778	54421.25
807.033	55120.25
807.287	55671.25
807.541	56395.25
807.796	57110.25
808.05	57957.25
808.304	58492.25
808.558	58771.25
808.812	58986.25
809.066	59579.25
809.32	59949.25
809.574	60487.25
809.828	60949.25
810.082	61407.25
810.336	62014.25
810.59	62598.25
810.844	63124.25
811.097	64208.25
811.351	65159.25
811.605	66071.25
811.858	67296.25
812.112	68371.25
812.365	69403.25
812.619	70582.25
812.872	71475.25
813.126	72468.25
813.379	73430.25
813.632	74410.25
813.885	75312.25
814.139	76471.25
814.392	77666.25
814.645	79058.25
814.898	80373.25
815.151	81664.25
815.404	83309.25
815.657	84954.25
815.91	86082.25
816.163	87171.25
816.416	88068.25
816.668	88706.25
816.921	89285.25
817.174	89574.25
817.426	89645.25
817.679	89571.25
817.931	89747.25
818.184	89339.25
818.436	89471.25
818.689	89649.25
818.941	89742.25
819.194	90217.25
819.446	90396.25
819.698	90897.25
819.95	91329.25
820.202	91719.25
820.455	91821.25
820.707	92320.25
820.959	92350.25
821.211	92344.25
821.462	92300.25
821.714	92041.25
821.966	91831.25
822.218	91323.25
822.47	90644.25
822.722	90637.25
822.973	90232.25
823.225	90107.25
823.476	89850.25
823.728	89928.25
823.979	90007.25
824.231	89761.25
824.482	90025.25
824.734	90319.25
824.985	90024.25
825.236	90101.25
825.487	89755.25
825.739	89647.25
825.99	89349.25
826.241	88968.25
826.492	88663.25
826.743	88184.25
826.994	87903.25
827.245	87542.25
827.496	87191.25
827.747	87153.25
827.997	87124.25
828.248	87321.25
828.499	87288.25
828.75	87427.25
829	87529.25
829.251	87484.25
829.501	87260.25
829.752	86948.25
830.002	86524.25
830.253	86227.25
830.503	85255.25
830.753	84934.25
831.004	84233.25
831.254	84087.25
831.504	83891.25
831.754	83912.25
832.004	83662.25
832.254	83512.25
832.504	83853.25
832.754	84142.25
833.004	83797.25
833.254	83876.25
833.504	83565.25
833.754	83179.25
834.003	82876.25
834.253	82588.25
834.503	82235.25
834.752	81534.25
835.002	81312.25
835.252	80926.25
835.501	80819.25
835.75	80520.25
836	80289.25
836.249	80176.25
836.499	80238.25
836.748	79975.25
836.997	80040.25
837.246	80315.25
837.495	80453.25
837.744	81233.25
837.993	81453.25
838.242	81631.25
838.491	81588.25
838.74	80591.25
838.989	79686.25
839.238	78842.25
839.487	78170.25
839.736	77814.25
839.984	77435.25
840.233	76748.25
840.482	76532.25
840.73	76286.25
840.979	76135.25
841.227	75929.25
841.476	75644.25
841.724	75515.25
841.972	75285.25
842.221	75029.25
842.469	74949.25
842.717	74641.25
842.965	74457.25
843.213	74055.25
843.461	73803.25
843.71	73466.25
843.958	73242.25
844.205	73084.25
844.453	72961.25
844.701	72875.25
844.949	72799.25
845.197	72737.25
845.445	72720.25
845.692	73015.25
845.94	73007.25
846.188	72889.25
846.435	72581.25
846.683	72588.25
846.93	72220.25
847.178	71777.25
847.425	71439.25
847.672	70665.25
847.92	70200.25
848.167	69634.25
848.414	69090.25
848.661	68487.25
848.908	68213.25
849.155	67839.25
849.402	67968.25
849.649	67974.25
849.896	68073.25
850.143	68740.25
850.39	68973.25
850.637	68944.25
850.884	68874.25
851.131	68658.25
851.377	68507.25
851.624	68436.25
851.87	68140.25
852.117	67875.25
852.364	67337.25
852.61	67210.25
852.856	66924.25
853.103	66515.25
853.349	66549.25
853.595	65984.25
853.842	65739.25
854.088	65464.25
854.334	65617.25
854.58	65536.25
854.826	65131.25
855.072	64792.25
855.318	64298.25
855.564	63855.25
855.81	63209.25
856.056	62633.25
856.302	62153.25
856.548	61700.25
856.793	61427.25
857.039	61188.25
857.285	60991.25
857.53	60963.25
857.776	60996.25
858.021	61292.25
858.267	61482.25
858.512	61372.25
858.758	61657.25
859.003	61637.25
859.248	61516.25
859.493	61593.25
859.739	61546.25
859.984	61149.25
860.229	61074.25
860.474	60493.25
860.719	60184.25
860.964	59930.25
861.209	59412.25
861.454	58778.25
861.699	58706.25
861.943	58422.25
862.188	58186.25
862.433	58044.25
862.678	57840.25
862.922	57709.25
863.167	57635.25
863.411	57384.25
863.656	57072.25
863.9	57171.25
864.145	57023.25
864.389	56435.25
864.634	56410.25
864.878	56239.25
865.122	56090.25
865.366	55974.25
865.61	55852.25
865.855	55750.25
866.099	55724.25
866.343	55517.25
866.587	55263.25
866.831	55441.25
867.074	55373.25
867.318	55290.25
867.562	55191.25
867.806	54958.25
868.05	55119.25
868.293	54982.25
868.537	54945.25
868.78	54564.25
869.024	54211.25
869.267	53792.25
869.511	53402.25
869.754	53050.25
869.998	52699.25
870.241	52123.25
870.484	51635.25
870.728	51473.25
870.971	51162.25
871.214	51055.25
871.457	50717.25
871.7	50739.25
871.943	50822.25
872.186	50924.25
872.429	50899.25
872.672	50954.25
872.915	50933.25
873.158	50510.25
873.4	50826.25
873.643	50493.25
873.886	50353.25
874.128	50172.25
874.371	50155.25
874.613	49989.25
874.856	49772.25
875.098	49580.25
875.341	49455.25
875.583	49354.25
875.825	49133.25
876.068	48805.25
876.31	48518.25
876.552	48176.25
876.794	47696.25
877.036	47413.25
877.278	46982.25
877.52	46840.25
877.762	46767.25
878.004	46568.25
878.246	46588.25
878.488	46378.25
878.73	46410.25
878.972	46339.25
879.213	46367.25
879.455	46392.25
879.697	46047.25
879.938	45961.25
880.18	45963.25
880.421	45691.25
880.663	45632.25
880.904	45663.25
881.145	45737.25
881.387	45753.25
881.628	45793.25
881.869	45569.25
882.11	45252.25
882.352	45233.25
882.593	45116.25
882.834	44851.25
883.075	44833.25
883.316	44621.25
883.557	44405.25
883.797	44320.25
884.038	44061.25
884.279	43401.25
884.52	42762.25
884.761	42483.25
885.001	42175.25
885.242	41888.25
885.482	41699.25
885.723	41459.25
885.963	41386.25
886.204	41116.25
886.444	40890.25
886.685	40876.25
886.925	40585.25
887.165	40483.25
887.405	40124.25
887.646	39986.25
887.886	39959.25
888.126	39835.25
888.366	39899.25
888.606	39942.25
888.846	40034.25
889.086	40249.25
889.326	40141.25
889.565	40195.25
889.805	39964.25
890.045	39930.25
890.285	39851.25
890.524	39701.25
890.764	39449.25
891.003	39381.25
891.243	38782.25
891.482	38444.25
891.722	38233.25
891.961	38004.25
892.201	37720.25
892.44	37364.25
892.679	37434.25
892.918	37184.25
893.158	37154.25
893.397	37023.25
893.636	36816.25
893.875	36594.25
894.114	36700.25
894.353	36526.25
894.592	36405.25
894.831	36212.25
895.069	35862.25
895.308	35779.25
895.547	35598.25
895.786	35449.25
896.024	35374.25
896.263	35335.25
896.501	35131.25
896.74	35236.25
896.978	35047.25
897.217	34954.25
897.455	34937.25
897.694	34805.25
897.932	34743.25
898.17	34566.25
898.408	34495.25
898.646	34231.25
898.885	34123.25
899.123	33983.25
899.361	33702.25
899.599	33581.25
899.837	33269.25
900.075	33017.25
900.312	32912.25
900.55	32556.25
900.788	32312.25
901.026	31992.25
901.263	31909.25
901.501	31481.25
901.739	31336.25
901.976	31188.25
902.214	31217.25
902.451	30890.25
902.689	30853.25
902.926	30904.25
903.163	30712.25
903.401	30797.25
903.638	30768.25
903.875	30649.25
904.112	30667.25
904.349	30732.25
904.586	30733.25
904.823	30513.25
905.06	30347.25
905.297	30083.25
905.534	29830.25
905.771	29683.25
906.008	29520.25
906.245	29307.25
906.481	29185.25
906.718	29059.25
906.955	28875.25
907.191	28791.25
907.428	28632.25
907.664	28553.25
907.901	28430.25
908.137	28300.25
908.374	28247.25
908.61	28105.25
908.846	28044.25
909.083	27811.25
909.319	27697.25
909.555	27371.25
909.791	27321.25
910.027	26979.25
910.263	26714.25
910.499	26554.25
910.735	26437.25
910.971	26199.25
911.207	26079.25
911.443	25942.25
911.678	25829.25
911.914	25790.25
912.15	25726.25
912.385	25625.25
912.621	25548.25
912.857	25581.25
913.092	25484.25
913.328	25437.25
913.563	25461.25
913.798	25475.25
914.034	25350.25
914.269	25254.25
914.504	25215.25
914.739	25138.25
914.975	25013.25
915.21	24714.25
915.445	24614.25
915.68	24449.25
915.915	24215.25
916.15	24035.25
916.384	23686.25
916.619	23360.25
916.854	23304.25
917.089	23087.25
917.324	23031.25
917.558	22769.25
917.793	22651.25
918.028	22464.25
918.262	22617.25
918.497	22597.25
918.731	22586.25
918.965	22353.25
919.2	22335.25
919.434	22347.25
919.668	22404.25
919.903	22330.25
920.137	22110.25
920.371	21912.25
920.605	21854.25
920.839	21662.25
921.073	21504.25
921.307	21498.25
921.541	21283.25
921.775	21108.25
922.009	20974.25
922.243	20965.25
922.476	20881.25
922.71	20969.25
922.944	20887.25
923.177	20890.25
923.411	20778.25
923.644	20788.25
923.878	20744.25
924.111	20555.25
924.345	20513.25
924.578	20333.25
924.811	20295.25
925.045	20265.25
925.278	20131.25
925.511	19944.25
925.744	19703.25
925.977	19571.25
926.21	19429.25
926.443	19391.25
926.676	19136.25
926.909	19012.25
927.142	18831.25
927.375	18696.25
927.608	18662.25
927.841	18501.25
928.073	18503.25
928.306	18340.25
928.539	18396.25
928.771	18361.25
929.004	18233.25
929.236	18361.25
929.469	18325.25
929.701	18337.25
929.933	18361.25
930.166	18268.25
930.398	18229.25
930.63	18173.25
930.862	18147.25
931.094	18039.25
931.327	17940.25
931.559	17782.25
931.791	17679.25
932.023	17495.25
932.255	17491.25
932.486	17354.25
932.718	17158.25
932.95	17046.25
933.182	16923.25
933.413	16871.25
933.645	16798.25
933.877	16713.25
934.108	16637.25
934.34	16620.25
934.571	16531.25
934.803	16489.25
935.034	16329.25
935.265	16230.25
935.497	16317.25
935.728	16178.25
935.959	16095.25
936.19	15967.25
936.422	15959.25
936.653	15885.25
936.884	15719.25
937.115	15647.25
937.346	15532.25
937.577	15429.25
937.807	15358.25
938.038	15161.25
938.269	15288.25
938.5	15231.25
938.73	15214.25
938.961	15177.25
939.192	15153.25
939.422	15152.25
939.653	15124.25
939.883	14956.25
940.114	15017.25
940.344	14974.25
940.574	14885.25
940.805	14749.25
941.035	14649.25
941.265	14551.25
941.495	14499.25
941.726	14335.25
941.956	14234.25
942.186	14167.25
942.416	14040.25
942.646	13907.25
942.876	13774.25
943.105	13647.25
943.335	13578.25
943.565	13444.25
943.795	13399.25
944.024	13252.25
944.254	13190.25
944.484	13111.25
944.713	13017.25
944.943	12868.25
945.172	12888.25
945.402	12888.25
945.631	12802.25
945.86	12808.25
946.09	12650.25
946.319	12734.25
946.548	12728.25
946.777	12647.25
947.006	12637.25
947.235	12527.25
947.465	12448.25
947.694	12336.25
947.922	12238.25
948.151	12169.25
948.38	12102.25
948.609	11978.25
948.838	11907.25
949.067	11795.25
949.295	11802.25
949.524	11634.25
949.752	11523.25
949.981	11491.25
950.21	11378.25
950.438	11424.25
950.666	11221.25
950.895	11157.25
951.123	11094.25
951.351	11073.25
951.58	11013.25
951.808	10851.25
952.036	10855.25
952.264	10820.25
952.492	10702.25
952.72	10685.25
952.948	10614.25
953.176	10533.25
953.404	10423.25
953.632	10387.25
953.86	10230.25
954.088	10190.25
954.315	10072.25
954.543	10038.25
954.771	10007.25
954.998	9874.25
955.226	9913.25
955.453	9838.25
955.681	9778.25
955.908	9797.25
956.135	9772.25
956.363	9796.25
956.59	9762.25
956.817	9754.25
957.045	9629.25
957.272	9628.25
957.499	9545.25
957.726	9511.25
957.953	9437.25
958.18	9364.25
958.407	9353.25
958.634	9301.25
958.861	9228.25
959.087	9250.25
959.314	9198.25
959.541	9079.25
959.767	9023.25
959.994	8934.25
960.221	8879.25
960.447	8736.25
960.674	8715.25
960.9	8614.25
961.127	8560.25
961.353	8502.25
961.579	8463.25
961.806	8418.25
962.032	8387.25
962.258	8338.25
962.484	8327.25
962.71	8288.25
962.936	8267.25
963.162	8220.25
963.388	8220.25
963.614	8194.25
963.84	8183.25
964.066	8239.25
964.292	8102.25
964.518	8057.25
964.743	8011.25
964.969	7937.25
965.195	7938.25
965.42	7967.25
965.646	7811.25
965.871	7853.25
966.097	7757.25
966.322	7810.25
966.547	7756.25
966.773	7660.25
966.998	7597.25
967.223	7630.25
967.448	7551.25
967.674	7482.25
967.899	7424.25
968.124	7440.25
968.349	7413.25
968.574	7313.25
968.799	7333.25
969.024	7198.25
969.248	7209.25
969.473	7184.25
969.698	7202.25
969.923	7070.25
970.147	7101.25
970.372	7013.25
970.596	6958.25
970.821	6943.25
971.046	6878.25
971.27	6892.25
971.494	6779.25
971.719	6750.25
971.943	6733.25
972.167	6651.25
972.392	6617.25
972.616	6596.25
972.84	6505.25
973.064	6504.25
973.288	6516.25
973.512	6441.25
973.736	6398.25
973.96	6377.25
974.184	6380.25
974.408	6355.25
974.631	6306.25
974.855	6330.25
975.079	6273.25
975.303	6285.25
975.526	6226.25
975.75	6221.25
975.973	6137.25
976.197	6143.25
976.42	6127.25
976.644	6124.25
976.867	6030.25
977.09	5998.25
977.313	5952.25
977.537	5924.25
977.76	5910.25
977.983	5821.25
978.206	5852.25
978.429	5768.25
978.652	5731.25
978.875	5674.25
979.098	5661.25
979.321	5660.25
979.544	5562.25
979.767	5569.25
979.989	5509.25
980.212	5464.25
980.435	5441.25
980.657	5394.25
980.88	5423.25
981.102	5339.25
981.325	5386.25
981.547	5260.25
981.77	5288.25
981.992	5262.25
982.214	5243.25
982.437	5237.25
982.659	5176.25
982.881	5258.25
983.103	5150.25
983.325	5164.25
983.547	5069.25
983.769	5097.25
983.991	5050.25
984.213	5015.25
984.435	5012.25
984.657	5015.25
984.879	5018.25
985.1	4956.25
985.322	4907.25
985.544	4876.25
985.765	4881.25
985.987	4835.25
986.208	4864.25
986.43	4841.25
986.651	4788.25
986.873	4719.25
987.094	4725.25
987.315	4645.25
987.536	4634.25
987.758	4598.25
987.979	4636.25
988.2	4578.25
988.421	4584.25
988.642	4512.25
988.863	4441.25
989.084	4485.25
989.305	4500.25
989.526	4392.25
989.747	4336.25
989.967	4350.25
990.188	4377.25
990.409	4303.25
990.629	4220.25
990.85	4260.25
991.071	4171.25
991.291	4150.25
991.512	4129.25
991.732	4116.25
991.952	4139.25
992.173	4091.25
992.393	4096.25
992.613	4060.25
992.834	4089.25
993.054	4064.25
993.274	4043.25
993.494	4051.25
993.714	4020.25
993.934	4008.25
994.154	4005.25
994.374	3946.25
994.594	3931.25
994.813	3921.25
995.033	3940.25
995.253	3948.25
995.473	3875.25
995.692	3883.25
995.912	3849.25
996.131	3815.25
996.351	3811.25
996.57	3733.25
996.79	3729.25
997.009	3673.25
997.228	3679.25
997.448	3675.25
997.667	3603.25
997.886	3585.25
998.105	3531.25
998.325	3495.25
998.544	3520.25
998.763	3457.25
998.982	3417.25
999.201	3421.25
999.419	3382.25
999.638	3423.25
999.857	3340.25
1000.076	3353.25
1000.295	3313.25
1000.513	3337.25
1000.732	3317.25
1000.95	3272.25
1001.169	3269.25
1001.388	3313.25
1001.606	3280.25
1001.824	3256.25
1002.043	3259.25
1002.261	3238.25
1002.479	3255.25
1002.698	3176.25
1002.916	3152.25
1003.134	3218.25
1003.352	3156.25
1003.57	3161.25
1003.788	3146.25
1004.006	3053.25
1004.224	3151.25
1004.442	3084.25
1004.66	3066.25
1004.878	3094.25
1005.095	3039.25
1005.313	3065.25
1005.531	3068.25
1005.748	3015.25
1005.966	3131.25
1006.184	2983.25
1006.401	3011.25
1006.618	3016.25
1006.836	2938.25
1007.053	2979.25
1007.271	2976.25
1007.488	2924.25
1007.705	2952.25
1007.922	2942.25
1008.139	2899.25
1008.357	2956.25
1008.574	2945.25
1008.791	2950.25
1009.008	2954.25
1009.225	3004.25
1009.441	3022.25
1009.658	3020.25
1009.875	3020.25
1010.092	3001.25
1010.309	2949.25
1010.525	2990.25
1010.742	2935.25
1010.958	2851.25
1011.175	2859.25
1011.391	2819.25
1011.608	2803.25
1011.824	2784.25
1012.041	2773.25
1012.257	2775.25
1012.473	2749.25
1012.689	2724.25
1012.906	2679.25
1013.122	2685.25
1013.338	2665.25
1013.554	2649.25
1013.77	2656.25
1013.986	2700.25
1014.202	2716.25
1014.418	2759.25
1014.634	2797.25
1014.849	2799.25
1015.065	2821.25
1015.281	2816.25
1015.496	2843.25
1015.712	2805.25
1015.928	2747.25
1016.143	2704.25
1016.359	2675.25
1016.574	2611.25
1016.79	2605.25
1017.005	2544.25
1017.22	2459.25
1017.435	2454.25
1017.651	2401.25
1017.866	2363.25
1018.081	2292.25
1018.296	2275.25
1018.511	2253.25
1018.726	2257.25
1018.941	2212.25
1019.156	2198.25
1019.371	2184.25
1019.586	2162.25
1019.801	2159.25
1020.015	2181.25
1020.23	2148.25
1020.445	2103.25
1020.659	2074.25
1020.874	2070.25
1021.088	2008.25
1021.303	2006.25
1021.517	1961.25
1021.732	1947.25
1021.946	1936.25
1022.16	1947.25
1022.375	1876.25
1022.589	1846.25
1022.803	1829.25
1023.017	1787.25
1023.231	1747.25
1023.445	1752.25
1023.659	1722.25
1023.873	1666.25
1024.087	1615.25
1024.301	1598.25
1024.515	1595.25
1024.729	1567.25
1024.942	1544.25
1025.156	1518.25
1025.37	1496.25
1025.583	1446.25
1025.797	1423.25
1026.01	1426.25
1026.224	1371.25
1026.437	1333.25
1026.651	1308.25
1026.864	1247.25
1027.077	1260.25
1027.291	1191.25
1027.504	1190.25
1027.717	1127.25
1027.93	1098.25
1028.143	1084.25
1028.356	1035.25
1028.569	993.25
1028.782	950.25
1028.995	-0.75
1029.208	-2.75
1029.421	-1.75
1029.634	-1.75
