Data from QEP037381__323__15-36-01-560.txt Node

Date: Mon Mar 14 15:36:01 EDT 2022
User: dcclab
Spectrometer: QEP03738
Trigger mode: 4
Integration Time (sec): 2.500000E0
Scans to average: 1
Electric dark correction enabled: true
Nonlinearity correction enabled: false
Boxcar width: 0
XAxis mode: Wavelengths
Number of Pixels in Spectrum: 1044
>>>>>Begin Spectral Data<<<<<
783.959	11.5
784.218	-1.5
784.476	-3.5
784.734	-3.5
784.992	274.5
785.251	259.5
785.509	253.5
785.767	247.5
786.025	245.5
786.283	254.5
786.541	247.5
786.798	242.5
787.056	250.5
787.314	226.5
787.572	238.5
787.83	245.5
788.087	251.5
788.345	256.5
788.602	246.5
788.86	261.5
789.117	258.5
789.375	240.5
789.632	251.5
789.89	244.5
790.147	274.5
790.404	251.5
790.661	265.5
790.919	291.5
791.176	282.5
791.433	284.5
791.69	281.5
791.947	291.5
792.204	280.5
792.461	306.5
792.718	309.5
792.974	315.5
793.231	315.5
793.488	334.5
793.745	331.5
794.001	350.5
794.258	391.5
794.514	374.5
794.771	411.5
795.027	421.5
795.284	438.5
795.54	470.5
795.797	476.5
796.053	537.5
796.309	571.5
796.565	630.5
796.822	693.5
797.078	779.5
797.334	906.5
797.59	1047.5
797.846	1325.5
798.102	1713.5
798.358	2278.5
798.614	3264.5
798.869	4754.5
799.125	6993.5
799.381	10139.5
799.637	14396.5
799.892	19580.5
800.148	25253.5
800.403	30661.5
800.659	35463.5
800.914	39250.5
801.17	41854.5
801.425	43417.5
801.68	44754.5
801.936	45846.5
802.191	46818.5
802.446	47869.5
802.701	49058.5
802.957	50071.5
803.212	51126.5
803.467	51992.5
803.722	53301.5
803.977	54073.5
804.232	55300.5
804.486	56427.5
804.741	57451.5
804.996	58699.5
805.251	59620.5
805.505	60760.5
805.76	61868.5
806.015	62601.5
806.269	63567.5
806.524	64223.5
806.778	65019.5
807.033	65437.5
807.287	66048.5
807.541	67257.5
807.796	68099.5
808.05	68905.5
808.304	69630.5
808.558	70062.5
808.812	70572.5
809.066	71110.5
809.32	71656.5
809.574	72243.5
809.828	72832.5
810.082	73267.5
810.336	74005.5
810.59	74548.5
810.844	75684.5
811.097	76461.5
811.351	77862.5
811.605	79192.5
811.858	80386.5
812.112	81524.5
812.365	83061.5
812.619	84132.5
812.872	85509.5
813.126	86659.5
813.379	87915.5
813.632	88922.5
813.885	89925.5
814.139	91650.5
814.392	92785.5
814.645	94363.5
814.898	96166.5
815.151	98050.5
815.404	99771.5
815.657	101633.5
815.91	102918.5
816.163	104206.5
816.416	105429.5
816.668	106150.5
816.921	106940.5
817.174	107116.5
817.426	107301.5
817.679	107258.5
817.931	107380.5
818.184	107277.5
818.436	107297.5
818.689	107218.5
818.941	107592.5
819.194	108106.5
819.446	108490.5
819.698	109127.5
819.95	109661.5
820.202	110061.5
820.455	110611.5
820.707	110915.5
820.959	110654.5
821.211	110868.5
821.462	110849.5
821.714	110678.5
821.966	110062.5
822.218	109722.5
822.47	109075.5
822.722	108688.5
822.973	108601.5
823.225	107987.5
823.476	108008.5
823.728	108060.5
823.979	108244.5
824.231	108130.5
824.482	108132.5
824.734	108283.5
824.985	108325.5
825.236	108380.5
825.487	108063.5
825.739	107690.5
825.99	107383.5
826.241	107127.5
826.492	106430.5
826.743	105802.5
826.994	105427.5
827.245	105316.5
827.496	104921.5
827.747	104973.5
827.997	104948.5
828.248	105052.5
828.499	104928.5
828.75	105180.5
829	105351.5
829.251	105224.5
829.501	104960.5
829.752	104557.5
830.002	104124.5
830.253	103689.5
830.503	103144.5
830.753	102312.5
831.004	101782.5
831.254	101322.5
831.504	101119.5
831.754	100971.5
832.004	100656.5
832.254	100615.5
832.504	100916.5
832.754	101063.5
833.004	100837.5
833.254	100685.5
833.504	100386.5
833.754	100434.5
834.003	99800.5
834.253	99689.5
834.503	98983.5
834.752	98482.5
835.002	97882.5
835.252	97709.5
835.501	97230.5
835.75	96884.5
836	96700.5
836.249	96522.5
836.499	96499.5
836.748	96241.5
836.997	96510.5
837.246	96310.5
837.495	96975.5
837.744	97337.5
837.993	97889.5
838.242	98032.5
838.491	97769.5
838.74	97131.5
838.989	95754.5
839.238	94953.5
839.487	94279.5
839.736	93934.5
839.984	93089.5
840.233	92944.5
840.482	92469.5
840.73	92101.5
840.979	91558.5
841.227	91605.5
841.476	91441.5
841.724	90969.5
841.972	90638.5
842.221	90723.5
842.469	90320.5
842.717	89828.5
842.965	89460.5
843.213	89525.5
843.461	89061.5
843.71	88709.5
843.958	88066.5
844.205	88023.5
844.453	87897.5
844.701	87796.5
844.949	87720.5
845.197	87507.5
845.445	87481.5
845.692	87873.5
845.94	87896.5
846.188	87933.5
846.435	87864.5
846.683	87516.5
846.93	86985.5
847.178	86660.5
847.425	85935.5
847.672	85412.5
847.92	84572.5
848.167	83887.5
848.414	83100.5
848.661	82605.5
848.908	82209.5
849.155	82022.5
849.402	81868.5
849.649	82169.5
849.896	82212.5
850.143	82987.5
850.39	82931.5
850.637	82912.5
850.884	82972.5
851.131	82942.5
851.377	82611.5
851.624	82259.5
851.87	81954.5
852.117	81478.5
852.364	81029.5
852.61	80749.5
852.856	80511.5
853.103	80121.5
853.349	79825.5
853.595	79652.5
853.842	79076.5
854.088	78914.5
854.334	79026.5
854.58	79022.5
854.826	78606.5
855.072	78012.5
855.318	77164.5
855.564	76764.5
855.81	76006.5
856.056	75432.5
856.302	74700.5
856.548	74265.5
856.793	73823.5
857.039	73873.5
857.285	73429.5
857.53	73455.5
857.776	73463.5
858.021	73736.5
858.267	73867.5
858.512	74140.5
858.758	74299.5
859.003	74194.5
859.248	74278.5
859.493	74118.5
859.739	73786.5
859.984	73655.5
860.229	73214.5
860.474	72869.5
860.719	72271.5
860.964	71882.5
861.209	71586.5
861.454	71027.5
861.699	70705.5
861.943	70289.5
862.188	69940.5
862.433	69686.5
862.678	69342.5
862.922	69196.5
863.167	69210.5
863.411	68914.5
863.656	68746.5
863.9	68710.5
864.145	68383.5
864.389	68004.5
864.634	67813.5
864.878	67572.5
865.122	67347.5
865.366	67203.5
865.61	66928.5
865.855	66998.5
866.099	66865.5
866.343	66712.5
866.587	66490.5
866.831	66448.5
867.074	66527.5
867.318	66312.5
867.562	66178.5
867.806	66294.5
868.05	66024.5
868.293	65933.5
868.537	65881.5
868.78	65607.5
869.024	64894.5
869.267	64490.5
869.511	64101.5
869.754	63815.5
869.998	63117.5
870.241	62580.5
870.484	62131.5
870.728	61719.5
870.971	61401.5
871.214	61196.5
871.457	60947.5
871.7	61065.5
871.943	61180.5
872.186	61184.5
872.429	61224.5
872.672	61252.5
872.915	60971.5
873.158	60888.5
873.4	60697.5
873.643	60692.5
873.886	60462.5
874.128	60261.5
874.371	60095.5
874.613	59922.5
874.856	59651.5
875.098	59393.5
875.341	59400.5
875.583	59244.5
875.825	59114.5
876.068	58757.5
876.31	58334.5
876.552	57880.5
876.794	57559.5
877.036	56858.5
877.278	56592.5
877.52	56360.5
877.762	56208.5
878.004	55896.5
878.246	55747.5
878.488	55911.5
878.73	55697.5
878.972	55501.5
879.213	55460.5
879.455	55602.5
879.697	55489.5
879.938	55193.5
880.18	55056.5
880.421	54880.5
880.663	54844.5
880.904	54820.5
881.145	54883.5
881.387	54916.5
881.628	54799.5
881.869	54570.5
882.11	54422.5
882.352	54079.5
882.593	53874.5
882.834	53868.5
883.075	53748.5
883.316	53516.5
883.557	53349.5
883.797	53085.5
884.038	52747.5
884.279	52189.5
884.52	51391.5
884.761	51088.5
885.001	50729.5
885.242	50390.5
885.482	50012.5
885.723	49782.5
885.963	49505.5
886.204	49260.5
886.444	49213.5
886.685	49024.5
886.925	48831.5
887.165	48573.5
887.405	48223.5
887.646	48077.5
887.886	47997.5
888.126	48062.5
888.366	47779.5
888.606	48016.5
888.846	48190.5
889.086	48445.5
889.326	48178.5
889.565	48057.5
889.805	48135.5
890.045	48072.5
890.285	47909.5
890.524	47634.5
890.764	47496.5
891.003	47205.5
891.243	46720.5
891.482	46317.5
891.722	45848.5
891.961	45551.5
892.201	45189.5
892.44	45122.5
892.679	44734.5
892.918	44700.5
893.158	44610.5
893.397	44424.5
893.636	44264.5
893.875	44208.5
894.114	43959.5
894.353	43848.5
894.592	43908.5
894.831	43452.5
895.069	43191.5
895.308	42828.5
895.547	42665.5
895.786	42529.5
896.024	42548.5
896.263	42373.5
896.501	42487.5
896.74	42289.5
896.978	42134.5
897.217	41925.5
897.455	41833.5
897.694	41867.5
897.932	41664.5
898.17	41517.5
898.408	41344.5
898.646	41225.5
898.885	41039.5
899.123	40873.5
899.361	40636.5
899.599	40374.5
899.837	40033.5
900.075	39715.5
900.312	39556.5
900.55	39057.5
900.788	38816.5
901.026	38532.5
901.263	38302.5
901.501	37971.5
901.739	37633.5
901.976	37551.5
902.214	37313.5
902.451	37238.5
902.689	37300.5
902.926	36963.5
903.163	37036.5
903.401	37211.5
903.638	37143.5
903.875	36955.5
904.112	36920.5
904.349	36946.5
904.586	36848.5
904.823	36708.5
905.06	36449.5
905.297	36306.5
905.534	35892.5
905.771	35803.5
906.008	35471.5
906.245	35224.5
906.481	35142.5
906.718	34858.5
906.955	34678.5
907.191	34710.5
907.428	34343.5
907.664	34194.5
907.901	34064.5
908.137	33764.5
908.374	33834.5
908.61	33781.5
908.846	33590.5
909.083	33448.5
909.319	33147.5
909.555	32996.5
909.791	32620.5
910.027	32473.5
910.263	32212.5
910.499	32068.5
910.735	31845.5
910.971	31599.5
911.207	31489.5
911.443	31169.5
911.678	31078.5
911.914	30921.5
912.15	30964.5
912.385	30820.5
912.621	30778.5
912.857	30722.5
913.092	30702.5
913.328	30816.5
913.563	30708.5
913.798	30673.5
914.034	30466.5
914.269	30332.5
914.504	30261.5
914.739	30294.5
914.975	30050.5
915.21	29742.5
915.445	29576.5
915.68	29267.5
915.915	29123.5
916.15	28968.5
916.384	28477.5
916.619	28183.5
916.854	27982.5
917.089	27835.5
917.324	27535.5
917.558	27476.5
917.793	27274.5
918.028	27205.5
918.262	27199.5
918.497	27125.5
918.731	27082.5
918.965	26961.5
919.2	26952.5
919.434	26930.5
919.668	26920.5
919.903	26730.5
920.137	26767.5
920.371	26454.5
920.605	26428.5
920.839	26183.5
921.073	25945.5
921.307	25814.5
921.541	25687.5
921.775	25473.5
922.009	25379.5
922.243	25367.5
922.476	25351.5
922.71	25314.5
922.944	25222.5
923.177	25111.5
923.411	25212.5
923.644	25055.5
923.878	25012.5
924.111	24810.5
924.345	24678.5
924.578	24662.5
924.811	24619.5
925.045	24481.5
925.278	24197.5
925.511	24115.5
925.744	23847.5
925.977	23735.5
926.21	23626.5
926.443	23393.5
926.676	23111.5
926.909	22972.5
927.142	22911.5
927.375	22687.5
927.608	22556.5
927.841	22465.5
928.073	22292.5
928.306	22318.5
928.539	22248.5
928.771	22255.5
929.004	22177.5
929.236	22220.5
929.469	22324.5
929.701	22189.5
929.933	22172.5
930.166	22199.5
930.398	22067.5
930.63	21861.5
930.862	21964.5
931.094	21868.5
931.327	21795.5
931.559	21626.5
931.791	21517.5
932.023	21448.5
932.255	21281.5
932.486	20974.5
932.718	20879.5
932.95	20765.5
933.182	20723.5
933.413	20452.5
933.645	20433.5
933.877	20406.5
934.108	20239.5
934.34	20258.5
934.571	20112.5
934.803	20069.5
935.034	19896.5
935.265	19893.5
935.497	19902.5
935.728	19634.5
935.959	19610.5
936.19	19577.5
936.422	19485.5
936.653	19397.5
936.884	19274.5
937.115	19207.5
937.346	19044.5
937.577	18943.5
937.807	18778.5
938.038	18723.5
938.269	18729.5
938.5	18604.5
938.73	18651.5
938.961	18592.5
939.192	18546.5
939.422	18525.5
939.653	18501.5
939.883	18407.5
940.114	18449.5
940.344	18404.5
940.574	18361.5
940.805	18225.5
941.035	18111.5
941.265	17870.5
941.495	17753.5
941.726	17677.5
941.956	17450.5
942.186	17461.5
942.416	17256.5
942.646	17168.5
942.876	16986.5
943.105	16910.5
943.335	16800.5
943.565	16618.5
943.795	16514.5
944.024	16341.5
944.254	16272.5
944.484	16180.5
944.713	16148.5
944.943	16013.5
945.172	15969.5
945.402	15941.5
945.631	15911.5
945.86	15851.5
946.09	15824.5
946.319	15795.5
946.548	15795.5
946.777	15756.5
947.006	15695.5
947.235	15656.5
947.465	15621.5
947.694	15441.5
947.922	15359.5
948.151	15205.5
948.38	15097.5
948.609	15086.5
948.838	14890.5
949.067	14840.5
949.295	14836.5
949.524	14547.5
949.752	14455.5
949.981	14490.5
950.21	14380.5
950.438	14244.5
950.666	14186.5
950.895	14135.5
951.123	14029.5
951.351	13938.5
951.58	13762.5
951.808	13777.5
952.036	13711.5
952.264	13675.5
952.492	13578.5
952.72	13491.5
952.948	13432.5
953.176	13376.5
953.404	13250.5
953.632	13127.5
953.86	13095.5
954.088	12904.5
954.315	12812.5
954.543	12778.5
954.771	12673.5
954.998	12599.5
955.226	12560.5
955.453	12452.5
955.681	12458.5
955.908	12399.5
956.135	12449.5
956.363	12405.5
956.59	12322.5
956.817	12363.5
957.045	12235.5
957.272	12220.5
957.499	12070.5
957.726	12142.5
957.953	12096.5
958.18	12055.5
958.407	11893.5
958.634	11882.5
958.861	11765.5
959.087	11663.5
959.314	11632.5
959.541	11638.5
959.767	11534.5
959.994	11390.5
960.221	11310.5
960.447	11209.5
960.674	11196.5
960.9	11109.5
961.127	10925.5
961.353	10919.5
961.579	10839.5
961.806	10835.5
962.032	10767.5
962.258	10665.5
962.484	10693.5
962.71	10583.5
962.936	10524.5
963.162	10479.5
963.388	10455.5
963.614	10489.5
963.84	10432.5
964.066	10354.5
964.292	10393.5
964.518	10324.5
964.743	10298.5
964.969	10203.5
965.195	10230.5
965.42	10109.5
965.646	10124.5
965.871	10077.5
966.097	9994.5
966.322	9986.5
966.547	9921.5
966.773	9851.5
966.998	9723.5
967.223	9702.5
967.448	9660.5
967.674	9554.5
967.899	9535.5
968.124	9499.5
968.349	9455.5
968.574	9422.5
968.799	9402.5
969.024	9355.5
969.248	9279.5
969.473	9223.5
969.698	9129.5
969.923	9080.5
970.147	9084.5
970.372	8998.5
970.596	8962.5
970.821	8875.5
971.046	8897.5
971.27	8741.5
971.494	8731.5
971.719	8706.5
971.943	8616.5
972.167	8544.5
972.392	8507.5
972.616	8426.5
972.84	8423.5
973.064	8290.5
973.288	8313.5
973.512	8308.5
973.736	8229.5
973.96	8188.5
974.184	8172.5
974.408	8129.5
974.631	8127.5
974.855	8147.5
975.079	8014.5
975.303	8026.5
975.526	8020.5
975.75	7971.5
975.973	7904.5
976.197	7922.5
976.42	7791.5
976.644	7765.5
976.867	7732.5
977.09	7702.5
977.313	7620.5
977.537	7643.5
977.76	7506.5
977.983	7513.5
978.206	7448.5
978.429	7413.5
978.652	7347.5
978.875	7247.5
979.098	7237.5
979.321	7231.5
979.544	7144.5
979.767	7080.5
979.989	7048.5
980.212	7038.5
980.435	6964.5
980.657	6918.5
980.88	6936.5
981.102	6878.5
981.325	6837.5
981.547	6756.5
981.77	6789.5
981.992	6797.5
982.214	6730.5
982.437	6725.5
982.659	6659.5
982.881	6665.5
983.103	6569.5
983.325	6594.5
983.547	6487.5
983.769	6524.5
983.991	6453.5
984.213	6434.5
984.435	6474.5
984.657	6386.5
984.879	6343.5
985.1	6319.5
985.322	6339.5
985.544	6210.5
985.765	6179.5
985.987	6203.5
986.208	6169.5
986.43	6126.5
986.651	6098.5
986.873	6024.5
987.094	6029.5
987.315	5950.5
987.536	5915.5
987.758	5894.5
987.979	5827.5
988.2	5810.5
988.421	5769.5
988.642	5770.5
988.863	5667.5
989.084	5677.5
989.305	5671.5
989.526	5643.5
989.747	5549.5
989.967	5493.5
990.188	5487.5
990.409	5422.5
990.629	5437.5
990.85	5365.5
991.071	5298.5
991.291	5295.5
991.512	5250.5
991.732	5241.5
991.952	5219.5
992.173	5205.5
992.393	5174.5
992.613	5154.5
992.834	5157.5
993.054	5199.5
993.274	5127.5
993.494	5087.5
993.714	5122.5
993.934	5081.5
994.154	5095.5
994.374	5024.5
994.594	4987.5
994.813	4972.5
995.033	4944.5
995.253	4943.5
995.473	4960.5
995.692	4901.5
995.912	4888.5
996.131	4841.5
996.351	4789.5
996.57	4733.5
996.79	4706.5
997.009	4622.5
997.228	4610.5
997.448	4549.5
997.667	4578.5
997.886	4472.5
998.105	4477.5
998.325	4417.5
998.544	4425.5
998.763	4349.5
998.982	4380.5
999.201	4305.5
999.419	4280.5
999.638	4260.5
999.857	4257.5
1000.076	4244.5
1000.295	4219.5
1000.513	4184.5
1000.732	4135.5
1000.95	4122.5
1001.169	4088.5
1001.388	4129.5
1001.606	4107.5
1001.824	4084.5
1002.043	4032.5
1002.261	4040.5
1002.479	4037.5
1002.698	3986.5
1002.916	3957.5
1003.134	3999.5
1003.352	3974.5
1003.57	3934.5
1003.788	3939.5
1004.006	3936.5
1004.224	3902.5
1004.442	3851.5
1004.66	3884.5
1004.878	3835.5
1005.095	3813.5
1005.313	3810.5
1005.531	3756.5
1005.748	3723.5
1005.966	3844.5
1006.184	3699.5
1006.401	3724.5
1006.618	3715.5
1006.836	3680.5
1007.053	3678.5
1007.271	3725.5
1007.488	3609.5
1007.705	3633.5
1007.922	3605.5
1008.139	3602.5
1008.357	3596.5
1008.574	3610.5
1008.791	3650.5
1009.008	3679.5
1009.225	3665.5
1009.441	3677.5
1009.658	3660.5
1009.875	3687.5
1010.092	3666.5
1010.309	3660.5
1010.525	3590.5
1010.742	3516.5
1010.958	3525.5
1011.175	3516.5
1011.391	3463.5
1011.608	3457.5
1011.824	3422.5
1012.041	3353.5
1012.257	3389.5
1012.473	3318.5
1012.689	3251.5
1012.906	3286.5
1013.122	3295.5
1013.338	3312.5
1013.554	3252.5
1013.77	3248.5
1013.986	3284.5
1014.202	3298.5
1014.418	3357.5
1014.634	3408.5
1014.849	3439.5
1015.065	3460.5
1015.281	3457.5
1015.496	3429.5
1015.712	3405.5
1015.928	3403.5
1016.143	3297.5
1016.359	3274.5
1016.574	3204.5
1016.79	3123.5
1017.005	3046.5
1017.22	3012.5
1017.435	2966.5
1017.651	2890.5
1017.866	2839.5
1018.081	2778.5
1018.296	2744.5
1018.511	2715.5
1018.726	2722.5
1018.941	2703.5
1019.156	2641.5
1019.371	2670.5
1019.586	2653.5
1019.801	2615.5
1020.015	2591.5
1020.23	2561.5
1020.445	2583.5
1020.659	2535.5
1020.874	2492.5
1021.088	2473.5
1021.303	2424.5
1021.517	2456.5
1021.732	2382.5
1021.946	2355.5
1022.16	2342.5
1022.375	2274.5
1022.589	2263.5
1022.803	2257.5
1023.017	2183.5
1023.231	2140.5
1023.445	2132.5
1023.659	2054.5
1023.873	2005.5
1024.087	2018.5
1024.301	1970.5
1024.515	1930.5
1024.729	1916.5
1024.942	1839.5
1025.156	1867.5
1025.37	1807.5
1025.583	1775.5
1025.797	1761.5
1026.01	1704.5
1026.224	1661.5
1026.437	1611.5
1026.651	1577.5
1026.864	1517.5
1027.077	1509.5
1027.291	1474.5
1027.504	1437.5
1027.717	1374.5
1027.93	1356.5
1028.143	1309.5
1028.356	1267.5
1028.569	1206.5
1028.782	1166.5
1028.995	0.5
1029.208	1.5
1029.421	-2.5
1029.634	-2.5
