Data from QEP037381__303__15-35-11-559.txt Node

Date: Mon Mar 14 15:35:11 EDT 2022
User: dcclab
Spectrometer: QEP03738
Trigger mode: 4
Integration Time (sec): 2.500000E0
Scans to average: 1
Electric dark correction enabled: true
Nonlinearity correction enabled: false
Boxcar width: 0
XAxis mode: Wavelengths
Number of Pixels in Spectrum: 1044
>>>>>Begin Spectral Data<<<<<
783.959	15.38
784.218	-1.62
784.476	-1.62
784.734	-0.62
784.992	278.38
785.251	250.38
785.509	255.38
785.767	244.38
786.025	253.38
786.283	254.38
786.541	250.38
786.798	261.38
787.056	247.38
787.314	241.38
787.572	249.38
787.83	235.38
788.087	249.38
788.345	247.38
788.602	259.38
788.86	257.38
789.117	254.38
789.375	240.38
789.632	241.38
789.89	247.38
790.147	262.38
790.404	268.38
790.661	262.38
790.919	286.38
791.176	275.38
791.433	284.38
791.69	283.38
791.947	296.38
792.204	269.38
792.461	311.38
792.718	297.38
792.974	309.38
793.231	329.38
793.488	351.38
793.745	336.38
794.001	370.38
794.258	378.38
794.514	385.38
794.771	388.38
795.027	421.38
795.284	438.38
795.54	456.38
795.797	498.38
796.053	556.38
796.309	556.38
796.565	611.38
796.822	692.38
797.078	781.38
797.334	914.38
797.59	1046.38
797.846	1316.38
798.102	1715.38
798.358	2322.38
798.614	3242.38
798.869	4760.38
799.125	7007.38
799.381	10132.38
799.637	14436.38
799.892	19579.38
800.148	25230.38
800.403	30755.38
800.659	35528.38
800.914	39309.38
801.17	41648.38
801.425	43520.38
801.68	44784.38
801.936	45829.38
802.191	46734.38
802.446	47961.38
802.701	49147.38
802.957	50247.38
803.212	51316.38
803.467	52142.38
803.722	53156.38
803.977	54384.38
804.232	55410.38
804.486	56478.38
804.741	57607.38
804.996	58738.38
805.251	59664.38
805.505	60790.38
805.76	61705.38
806.015	62680.38
806.269	63603.38
806.524	64380.38
806.778	64977.38
807.033	65585.38
807.287	66319.38
807.541	67379.38
807.796	68174.38
808.05	69143.38
808.304	69655.38
808.558	70110.38
808.812	70651.38
809.066	71331.38
809.32	71707.38
809.574	72339.38
809.828	72985.38
810.082	73490.38
810.336	74147.38
810.59	74818.38
810.844	75815.38
811.097	76637.38
811.351	77719.38
811.605	79254.38
811.858	80372.38
812.112	81679.38
812.365	83114.38
812.619	84333.38
812.872	85691.38
813.126	86796.38
813.379	87970.38
813.632	89072.38
813.885	90051.38
814.139	91852.38
814.392	93108.38
814.645	94500.38
814.898	96308.38
815.151	98287.38
815.404	100002.38
815.657	101532.38
815.91	103277.38
816.163	104488.38
816.416	105411.38
816.668	106455.38
816.921	107120.38
817.174	107410.38
817.426	107523.38
817.679	107307.38
817.931	107374.38
818.184	107481.38
818.436	107503.38
818.689	107588.38
818.941	107884.38
819.194	108194.38
819.446	108463.38
819.698	109453.38
819.95	109709.38
820.202	110054.38
820.455	110477.38
820.707	110873.38
820.959	111160.38
821.211	111134.38
821.462	110894.38
821.714	110713.38
821.966	110498.38
822.218	109855.38
822.47	109161.38
822.722	108761.38
822.973	108745.38
823.225	108157.38
823.476	108091.38
823.728	108244.38
823.979	108232.38
824.231	108153.38
824.482	108409.38
824.734	108598.38
824.985	108364.38
825.236	108305.38
825.487	108123.38
825.739	107664.38
825.99	107481.38
826.241	107117.38
826.492	106530.38
826.743	106511.38
826.994	105943.38
827.245	105536.38
827.496	105300.38
827.747	105127.38
827.997	105089.38
828.248	105349.38
828.499	105427.38
828.75	105339.38
829	105442.38
829.251	105558.38
829.501	105110.38
829.752	104816.38
830.002	104227.38
830.253	103747.38
830.503	103298.38
830.753	102544.38
831.004	102083.38
831.254	101454.38
831.504	101441.38
831.754	101027.38
832.004	100851.38
832.254	101130.38
832.504	101148.38
832.754	101063.38
833.004	101074.38
833.254	100733.38
833.504	100896.38
833.754	100592.38
834.003	100204.38
834.253	99729.38
834.503	99293.38
834.752	98594.38
835.002	98187.38
835.252	97878.38
835.501	97517.38
835.75	96899.38
836	97070.38
836.249	96788.38
836.499	96872.38
836.748	96689.38
836.997	96620.38
837.246	96853.38
837.495	97519.38
837.744	97544.38
837.993	98114.38
838.242	98281.38
838.491	98132.38
838.74	97074.38
838.989	96079.38
839.238	95239.38
839.487	94539.38
839.736	93936.38
839.984	93410.38
840.233	93169.38
840.482	92498.38
840.73	92264.38
840.979	91880.38
841.227	91649.38
841.476	91428.38
841.724	91335.38
841.972	91057.38
842.221	90761.38
842.469	90690.38
842.717	89871.38
842.965	89540.38
843.213	89554.38
843.461	89228.38
843.71	88658.38
843.958	88425.38
844.205	88226.38
844.453	88013.38
844.701	87749.38
844.949	87861.38
845.197	87590.38
845.445	87707.38
845.692	87985.38
845.94	88417.38
846.188	88135.38
846.435	87966.38
846.683	87679.38
846.93	87263.38
847.178	86691.38
847.425	86224.38
847.672	85626.38
847.92	84777.38
848.167	84077.38
848.414	83148.38
848.661	82895.38
848.908	82423.38
849.155	82180.38
849.402	81879.38
849.649	82232.38
849.896	82378.38
850.143	83023.38
850.39	83304.38
850.637	83281.38
850.884	83190.38
851.131	82932.38
851.377	82496.38
851.624	82718.38
851.87	82011.38
852.117	81756.38
852.364	81211.38
852.61	80781.38
852.856	80897.38
853.103	80500.38
853.349	80092.38
853.595	79672.38
853.842	79119.38
854.088	79148.38
854.334	79114.38
854.58	79126.38
854.826	78740.38
855.072	78251.38
855.318	77620.38
855.564	76837.38
855.81	76298.38
856.056	75615.38
856.302	74951.38
856.548	74479.38
856.793	74070.38
857.039	73855.38
857.285	73716.38
857.53	73511.38
857.776	73693.38
858.021	73910.38
858.267	74146.38
858.512	74300.38
858.758	74263.38
859.003	74298.38
859.248	74271.38
859.493	74048.38
859.739	74086.38
859.984	73835.38
860.229	73434.38
860.474	72859.38
860.719	72578.38
860.964	72021.38
861.209	71852.38
861.454	71279.38
861.699	70695.38
861.943	70436.38
862.188	70023.38
862.433	69940.38
862.678	69500.38
862.922	69463.38
863.167	69321.38
863.411	69142.38
863.656	69114.38
863.9	68821.38
864.145	68565.38
864.389	68243.38
864.634	68116.38
864.878	67562.38
865.122	67271.38
865.366	67364.38
865.61	67161.38
865.855	67299.38
866.099	67011.38
866.343	66942.38
866.587	66877.38
866.831	66468.38
867.074	66522.38
867.318	66188.38
867.562	66457.38
867.806	66468.38
868.05	66086.38
868.293	66114.38
868.537	65888.38
868.78	65612.38
869.024	65178.38
869.267	64668.38
869.511	64368.38
869.754	63771.38
869.998	63166.38
870.241	62570.38
870.484	62207.38
870.728	61841.38
870.971	61604.38
871.214	61240.38
871.457	61204.38
871.7	61124.38
871.943	61325.38
872.186	61310.38
872.429	61380.38
872.672	61480.38
872.915	61094.38
873.158	60881.38
873.4	61051.38
873.643	60802.38
873.886	60579.38
874.128	60251.38
874.371	60378.38
874.613	60100.38
874.856	59780.38
875.098	59621.38
875.341	59622.38
875.583	59363.38
875.825	59253.38
876.068	58937.38
876.31	58533.38
876.552	58141.38
876.794	57575.38
877.036	57174.38
877.278	56701.38
877.52	56518.38
877.762	56207.38
878.004	56075.38
878.246	56082.38
878.488	55852.38
878.73	55914.38
878.972	55640.38
879.213	55612.38
879.455	55683.38
879.697	55497.38
879.938	55396.38
880.18	55108.38
880.421	54976.38
880.663	54930.38
880.904	55014.38
881.145	55061.38
881.387	55036.38
881.628	54966.38
881.869	54622.38
882.11	54467.38
882.352	54201.38
882.593	54178.38
882.834	54069.38
883.075	54036.38
883.316	53628.38
883.557	53415.38
883.797	53307.38
884.038	53087.38
884.279	52050.38
884.52	51602.38
884.761	51257.38
885.001	50624.38
885.242	50522.38
885.482	50120.38
885.723	49736.38
885.963	49701.38
886.204	49361.38
886.444	49306.38
886.685	49189.38
886.925	48990.38
887.165	48541.38
887.405	48335.38
887.646	48179.38
887.886	48143.38
888.126	48072.38
888.366	48012.38
888.606	47956.38
888.846	48202.38
889.086	48119.38
889.326	48261.38
889.565	48334.38
889.805	48310.38
890.045	48174.38
890.285	47986.38
890.524	47889.38
890.764	47676.38
891.003	47284.38
891.243	46685.38
891.482	46280.38
891.722	45883.38
891.961	45678.38
892.201	45399.38
892.44	45153.38
892.679	44994.38
892.918	44870.38
893.158	44811.38
893.397	44585.38
893.636	44479.38
893.875	44224.38
894.114	44049.38
894.353	43915.38
894.592	43910.38
894.831	43704.38
895.069	43323.38
895.308	43076.38
895.547	42938.38
895.786	42514.38
896.024	42668.38
896.263	42570.38
896.501	42344.38
896.74	42339.38
896.978	42425.38
897.217	42106.38
897.455	42037.38
897.694	41915.38
897.932	41682.38
898.17	41480.38
898.408	41634.38
898.646	41424.38
898.885	41171.38
899.123	40894.38
899.361	40733.38
899.599	40363.38
899.837	40187.38
900.075	40013.38
900.312	39739.38
900.55	39289.38
900.788	38898.38
901.026	38493.38
901.263	38309.38
901.501	38121.38
901.739	37842.38
901.976	37713.38
902.214	37544.38
902.451	37377.38
902.689	37283.38
902.926	37143.38
903.163	37138.38
903.401	37339.38
903.638	37203.38
903.875	37020.38
904.112	37105.38
904.349	37025.38
904.586	36905.38
904.823	36790.38
905.06	36604.38
905.297	36360.38
905.534	35975.38
905.771	35874.38
906.008	35600.38
906.245	35392.38
906.481	35194.38
906.718	34990.38
906.955	34852.38
907.191	34652.38
907.428	34467.38
907.664	34358.38
907.901	34114.38
908.137	34059.38
908.374	34049.38
908.61	33832.38
908.846	33661.38
909.083	33572.38
909.319	33386.38
909.555	33071.38
909.791	32776.38
910.027	32615.38
910.263	32298.38
910.499	32071.38
910.735	32006.38
910.971	31583.38
911.207	31447.38
911.443	31207.38
911.678	30906.38
911.914	30976.38
912.15	31053.38
912.385	30917.38
912.621	30911.38
912.857	30780.38
913.092	30781.38
913.328	30763.38
913.563	30674.38
913.798	30616.38
914.034	30569.38
914.269	30433.38
914.504	30489.38
914.739	30217.38
914.975	30188.38
915.21	29855.38
915.445	29674.38
915.68	29421.38
915.915	29240.38
916.15	28817.38
916.384	28533.38
916.619	28209.38
916.854	28019.38
917.089	27943.38
917.324	27703.38
917.558	27567.38
917.793	27346.38
918.028	27268.38
918.262	27182.38
918.497	27263.38
918.731	27081.38
918.965	26985.38
919.2	27027.38
919.434	26898.38
919.668	26920.38
919.903	26897.38
920.137	26877.38
920.371	26564.38
920.605	26442.38
920.839	26273.38
921.073	26092.38
921.307	25819.38
921.541	25748.38
921.775	25578.38
922.009	25442.38
922.243	25299.38
922.476	25269.38
922.71	25379.38
922.944	25309.38
923.177	25146.38
923.411	25235.38
923.644	25213.38
923.878	25043.38
924.111	24888.38
924.345	24934.38
924.578	24775.38
924.811	24607.38
925.045	24570.38
925.278	24286.38
925.511	24174.38
925.744	23953.38
925.977	23724.38
926.21	23568.38
926.443	23356.38
926.676	23162.38
926.909	23019.38
927.142	22910.38
927.375	22731.38
927.608	22584.38
927.841	22489.38
928.073	22459.38
928.306	22363.38
928.539	22350.38
928.771	22240.38
929.004	22239.38
929.236	22197.38
929.469	22146.38
929.701	22332.38
929.933	22286.38
930.166	22196.38
930.398	22179.38
930.63	22109.38
930.862	22120.38
931.094	21958.38
931.327	21839.38
931.559	21613.38
931.791	21534.38
932.023	21458.38
932.255	21251.38
932.486	21065.38
932.718	20984.38
932.95	20811.38
933.182	20770.38
933.413	20528.38
933.645	20352.38
933.877	20434.38
934.108	20401.38
934.34	20383.38
934.571	20108.38
934.803	20132.38
935.034	20011.38
935.265	19975.38
935.497	19962.38
935.728	19777.38
935.959	19716.38
936.19	19595.38
936.422	19566.38
936.653	19464.38
936.884	19437.38
937.115	19147.38
937.346	19054.38
937.577	19021.38
937.807	18826.38
938.038	18796.38
938.269	18743.38
938.5	18694.38
938.73	18720.38
938.961	18522.38
939.192	18578.38
939.422	18471.38
939.653	18549.38
939.883	18484.38
940.114	18544.38
940.344	18423.38
940.574	18327.38
940.805	18150.38
941.035	18133.38
941.265	17934.38
941.495	17768.38
941.726	17693.38
941.956	17640.38
942.186	17506.38
942.416	17429.38
942.646	17153.38
942.876	17102.38
943.105	16941.38
943.335	16799.38
943.565	16681.38
943.795	16523.38
944.024	16473.38
944.254	16395.38
944.484	16183.38
944.713	16095.38
944.943	16015.38
945.172	16024.38
945.402	15999.38
945.631	15878.38
945.86	15892.38
946.09	15853.38
946.319	15914.38
946.548	15857.38
946.777	15795.38
947.006	15757.38
947.235	15635.38
947.465	15584.38
947.694	15461.38
947.922	15411.38
948.151	15291.38
948.38	15108.38
948.609	14966.38
948.838	15021.38
949.067	14929.38
949.295	14781.38
949.524	14687.38
949.752	14522.38
949.981	14531.38
950.21	14317.38
950.438	14219.38
950.666	14210.38
950.895	14085.38
951.123	14004.38
951.351	14061.38
951.58	13854.38
951.808	13813.38
952.036	13748.38
952.264	13656.38
952.492	13677.38
952.72	13458.38
952.948	13461.38
953.176	13314.38
953.404	13263.38
953.632	13214.38
953.86	13032.38
954.088	12968.38
954.315	12873.38
954.543	12838.38
954.771	12700.38
954.998	12673.38
955.226	12605.38
955.453	12510.38
955.681	12486.38
955.908	12366.38
956.135	12511.38
956.363	12433.38
956.59	12415.38
956.817	12294.38
957.045	12297.38
957.272	12304.38
957.499	12213.38
957.726	12144.38
957.953	12055.38
958.18	12111.38
958.407	11918.38
958.634	11942.38
958.861	11846.38
959.087	11728.38
959.314	11733.38
959.541	11630.38
959.767	11510.38
959.994	11479.38
960.221	11375.38
960.447	11195.38
960.674	11264.38
960.9	11042.38
961.127	11033.38
961.353	10912.38
961.579	10831.38
961.806	10777.38
962.032	10710.38
962.258	10681.38
962.484	10672.38
962.71	10568.38
962.936	10602.38
963.162	10453.38
963.388	10562.38
963.614	10502.38
963.84	10500.38
964.066	10413.38
964.292	10436.38
964.518	10383.38
964.743	10238.38
964.969	10288.38
965.195	10194.38
965.42	10207.38
965.646	10085.38
965.871	10141.38
966.097	10028.38
966.322	10040.38
966.547	9961.38
966.773	9912.38
966.998	9725.38
967.223	9814.38
967.448	9666.38
967.674	9655.38
967.899	9556.38
968.124	9525.38
968.349	9533.38
968.574	9385.38
968.799	9476.38
969.024	9356.38
969.248	9230.38
969.473	9223.38
969.698	9204.38
969.923	9127.38
970.147	9050.38
970.372	9094.38
970.596	8951.38
970.821	8962.38
971.046	8878.38
971.27	8838.38
971.494	8685.38
971.719	8658.38
971.943	8659.38
972.167	8561.38
972.392	8537.38
972.616	8423.38
972.84	8411.38
973.064	8278.38
973.288	8329.38
973.512	8352.38
973.736	8264.38
973.96	8232.38
974.184	8201.38
974.408	8211.38
974.631	8163.38
974.855	8107.38
975.079	8068.38
975.303	8063.38
975.526	7997.38
975.75	7962.38
975.973	7880.38
976.197	7862.38
976.42	7826.38
976.644	7873.38
976.867	7805.38
977.09	7748.38
977.313	7671.38
977.537	7616.38
977.76	7613.38
977.983	7551.38
978.206	7484.38
978.429	7409.38
978.652	7393.38
978.875	7293.38
979.098	7257.38
979.321	7189.38
979.544	7127.38
979.767	7080.38
979.989	7075.38
980.212	7029.38
980.435	7006.38
980.657	6929.38
980.88	6981.38
981.102	6834.38
981.325	6877.38
981.547	6846.38
981.77	6759.38
981.992	6781.38
982.214	6751.38
982.437	6719.38
982.659	6689.38
982.881	6611.38
983.103	6604.38
983.325	6571.38
983.547	6556.38
983.769	6570.38
983.991	6480.38
984.213	6405.38
984.435	6433.38
984.657	6393.38
984.879	6340.38
985.1	6312.38
985.322	6318.38
985.544	6248.38
985.765	6247.38
985.987	6251.38
986.208	6225.38
986.43	6101.38
986.651	6106.38
986.873	6055.38
987.094	6086.38
987.315	6010.38
987.536	5949.38
987.758	5897.38
987.979	5859.38
988.2	5856.38
988.421	5810.38
988.642	5727.38
988.863	5676.38
989.084	5658.38
989.305	5664.38
989.526	5584.38
989.747	5556.38
989.967	5566.38
990.188	5509.38
990.409	5442.38
990.629	5395.38
990.85	5443.38
991.071	5344.38
991.291	5354.38
991.512	5282.38
991.732	5269.38
991.952	5255.38
992.173	5218.38
992.393	5185.38
992.613	5149.38
992.834	5185.38
993.054	5118.38
993.274	5122.38
993.494	5098.38
993.714	5137.38
993.934	5051.38
994.154	5061.38
994.374	5013.38
994.594	5006.38
994.813	5020.38
995.033	5005.38
995.253	4920.38
995.473	4938.38
995.692	4872.38
995.912	4812.38
996.131	4806.38
996.351	4794.38
996.57	4750.38
996.79	4689.38
997.009	4646.38
997.228	4640.38
997.448	4569.38
997.667	4578.38
997.886	4493.38
998.105	4460.38
998.325	4391.38
998.544	4373.38
998.763	4375.38
998.982	4319.38
999.201	4336.38
999.419	4306.38
999.638	4251.38
999.857	4238.38
1000.076	4196.38
1000.295	4212.38
1000.513	4219.38
1000.732	4167.38
1000.95	4122.38
1001.169	4143.38
1001.388	4137.38
1001.606	4103.38
1001.824	4101.38
1002.043	4045.38
1002.261	4042.38
1002.479	4035.38
1002.698	4031.38
1002.916	3967.38
1003.134	4039.38
1003.352	3930.38
1003.57	3931.38
1003.788	3949.38
1004.006	3903.38
1004.224	3906.38
1004.442	3858.38
1004.66	3848.38
1004.878	3865.38
1005.095	3844.38
1005.313	3845.38
1005.531	3767.38
1005.748	3822.38
1005.966	3847.38
1006.184	3733.38
1006.401	3716.38
1006.618	3710.38
1006.836	3675.38
1007.053	3665.38
1007.271	3624.38
1007.488	3668.38
1007.705	3642.38
1007.922	3644.38
1008.139	3630.38
1008.357	3658.38
1008.574	3623.38
1008.791	3656.38
1009.008	3693.38
1009.225	3642.38
1009.441	3665.38
1009.658	3705.38
1009.875	3681.38
1010.092	3690.38
1010.309	3666.38
1010.525	3626.38
1010.742	3585.38
1010.958	3527.38
1011.175	3526.38
1011.391	3506.38
1011.608	3439.38
1011.824	3399.38
1012.041	3405.38
1012.257	3370.38
1012.473	3342.38
1012.689	3329.38
1012.906	3320.38
1013.122	3321.38
1013.338	3285.38
1013.554	3289.38
1013.77	3282.38
1013.986	3293.38
1014.202	3305.38
1014.418	3349.38
1014.634	3381.38
1014.849	3428.38
1015.065	3462.38
1015.281	3439.38
1015.496	3477.38
1015.712	3445.38
1015.928	3377.38
1016.143	3274.38
1016.359	3245.38
1016.574	3165.38
1016.79	3084.38
1017.005	3087.38
1017.22	2985.38
1017.435	2954.38
1017.651	2932.38
1017.866	2892.38
1018.081	2844.38
1018.296	2766.38
1018.511	2751.38
1018.726	2722.38
1018.941	2692.38
1019.156	2651.38
1019.371	2627.38
1019.586	2665.38
1019.801	2641.38
1020.015	2593.38
1020.23	2590.38
1020.445	2586.38
1020.659	2588.38
1020.874	2530.38
1021.088	2469.38
1021.303	2402.38
1021.517	2422.38
1021.732	2386.38
1021.946	2322.38
1022.16	2310.38
1022.375	2318.38
1022.589	2284.38
1022.803	2257.38
1023.017	2190.38
1023.231	2157.38
1023.445	2131.38
1023.659	2062.38
1023.873	2062.38
1024.087	1964.38
1024.301	1944.38
1024.515	1943.38
1024.729	1916.38
1024.942	1870.38
1025.156	1866.38
1025.37	1793.38
1025.583	1786.38
1025.797	1699.38
1026.01	1707.38
1026.224	1678.38
1026.437	1618.38
1026.651	1602.38
1026.864	1509.38
1027.077	1554.38
1027.291	1474.38
1027.504	1452.38
1027.717	1377.38
1027.93	1354.38
1028.143	1324.38
1028.356	1275.38
1028.569	1201.38
1028.782	1146.38
1028.995	-2.62
1029.208	-1.62
1029.421	-3.62
1029.634	-3.62
