Data from QEP037381__305__15-35-16-558.txt Node

Date: Mon Mar 14 15:35:16 EDT 2022
User: dcclab
Spectrometer: QEP03738
Trigger mode: 4
Integration Time (sec): 2.500000E0
Scans to average: 1
Electric dark correction enabled: true
Nonlinearity correction enabled: false
Boxcar width: 0
XAxis mode: Wavelengths
Number of Pixels in Spectrum: 1044
>>>>>Begin Spectral Data<<<<<
783.959	16.88
784.218	0.88
784.476	-6.12
784.734	-3.12
784.992	265.88
785.251	264.88
785.509	252.88
785.767	252.88
786.025	254.88
786.283	249.88
786.541	247.88
786.798	248.88
787.056	253.88
787.314	220.88
787.572	244.88
787.83	235.88
788.087	240.88
788.345	247.88
788.602	240.88
788.86	245.88
789.117	249.88
789.375	240.88
789.632	246.88
789.89	240.88
790.147	260.88
790.404	247.88
790.661	263.88
790.919	282.88
791.176	269.88
791.433	289.88
791.69	284.88
791.947	282.88
792.204	274.88
792.461	292.88
792.718	304.88
792.974	305.88
793.231	303.88
793.488	338.88
793.745	339.88
794.001	350.88
794.258	382.88
794.514	376.88
794.771	402.88
795.027	396.88
795.284	436.88
795.54	460.88
795.797	473.88
796.053	523.88
796.309	564.88
796.565	588.88
796.822	660.88
797.078	758.88
797.334	874.88
797.59	1044.88
797.846	1313.88
798.102	1685.88
798.358	2247.88
798.614	3163.88
798.869	4667.88
799.125	6869.88
799.381	9951.88
799.637	14091.88
799.892	19106.88
800.148	24644.88
800.403	29922.88
800.659	34781.88
800.914	38401.88
801.17	40907.88
801.425	42587.88
801.68	43894.88
801.936	44765.88
802.191	45810.88
802.446	46934.88
802.701	47836.88
802.957	48976.88
803.212	49855.88
803.467	50846.88
803.722	52031.88
803.977	52969.88
804.232	54017.88
804.486	55293.88
804.741	56341.88
804.996	57201.88
805.251	58300.88
805.505	59258.88
805.76	60435.88
806.015	61259.88
806.269	62069.88
806.524	62942.88
806.778	63509.88
807.033	64054.88
807.287	64892.88
807.541	65745.88
807.796	66772.88
808.05	67503.88
808.304	68261.88
808.558	68579.88
808.812	69055.88
809.066	69583.88
809.32	70269.88
809.574	70681.88
809.828	71264.88
810.082	71736.88
810.336	72359.88
810.59	72982.88
810.844	74124.88
811.097	74948.88
811.351	76162.88
811.605	77401.88
811.858	78687.88
812.112	79826.88
812.365	81147.88
812.619	82476.88
812.872	83849.88
813.126	84916.88
813.379	86194.88
813.632	87013.88
813.885	88236.88
814.139	89842.88
814.392	91092.88
814.645	92538.88
814.898	94320.88
815.151	95936.88
815.404	97793.88
815.657	99794.88
815.91	100832.88
816.163	102308.88
816.416	103322.88
816.668	104133.88
816.921	104813.88
817.174	104940.88
817.426	104971.88
817.679	105245.88
817.931	105155.88
818.184	105013.88
818.436	105184.88
818.689	105193.88
818.941	105359.88
819.194	105837.88
819.446	106193.88
819.698	106973.88
819.95	107320.88
820.202	107704.88
820.455	108269.88
820.707	108623.88
820.959	108724.88
821.211	108868.88
821.462	108576.88
821.714	108209.88
821.966	108114.88
822.218	107410.88
822.47	107164.88
822.722	106586.88
822.973	106227.88
823.225	106017.88
823.476	105674.88
823.728	105787.88
823.979	105949.88
824.231	106158.88
824.482	106131.88
824.734	106059.88
824.985	106078.88
825.236	106175.88
825.487	105880.88
825.739	105674.88
825.99	105209.88
826.241	105000.88
826.492	104466.88
826.743	104024.88
826.994	103541.88
827.245	103303.88
827.496	103158.88
827.747	102978.88
827.997	103168.88
828.248	103090.88
828.499	103093.88
828.75	103374.88
829	103415.88
829.251	103340.88
829.501	102987.88
829.752	102594.88
830.002	102148.88
830.253	101469.88
830.503	101071.88
830.753	100440.88
831.004	99833.88
831.254	99495.88
831.504	99097.88
831.754	99148.88
832.004	98988.88
832.254	98644.88
832.504	99035.88
832.754	99036.88
833.004	98918.88
833.254	98685.88
833.504	98870.88
833.754	98616.88
834.003	97966.88
834.253	97722.88
834.503	97204.88
834.752	96510.88
835.002	96153.88
835.252	95736.88
835.501	95227.88
835.75	95197.88
836	95098.88
836.249	94995.88
836.499	94601.88
836.748	94502.88
836.997	94773.88
837.246	95080.88
837.495	95410.88
837.744	95734.88
837.993	96132.88
838.242	96461.88
838.491	96188.88
838.74	95499.88
838.989	94143.88
839.238	93431.88
839.487	92818.88
839.736	91923.88
839.984	91831.88
840.233	91056.88
840.482	90552.88
840.73	90289.88
840.979	89914.88
841.227	89972.88
841.476	89333.88
841.724	89255.88
841.972	88937.88
842.221	89057.88
842.469	88663.88
842.717	88133.88
842.965	87805.88
843.213	87523.88
843.461	87366.88
843.71	87011.88
843.958	86715.88
844.205	86455.88
844.453	86370.88
844.701	86261.88
844.949	85985.88
845.197	85982.88
845.445	86142.88
845.692	86366.88
845.94	86524.88
846.188	86289.88
846.435	86419.88
846.683	86012.88
846.93	85493.88
847.178	84962.88
847.425	84540.88
847.672	83769.88
847.92	83184.88
848.167	82697.88
848.414	81926.88
848.661	81219.88
848.908	80799.88
849.155	80535.88
849.402	80598.88
849.649	80544.88
849.896	80950.88
850.143	81384.88
850.39	81655.88
850.637	81655.88
850.884	81634.88
851.131	81588.88
851.377	81171.88
851.624	80732.88
851.87	80609.88
852.117	80125.88
852.364	79834.88
852.61	79231.88
852.856	79194.88
853.103	78865.88
853.349	78440.88
853.595	78106.88
853.842	77557.88
854.088	77569.88
854.334	77722.88
854.58	77580.88
854.826	76989.88
855.072	76534.88
855.318	76176.88
855.564	75614.88
855.81	74940.88
856.056	74465.88
856.302	73723.88
856.548	73055.88
856.793	72644.88
857.039	72441.88
857.285	72293.88
857.53	72178.88
857.776	72279.88
858.021	72495.88
858.267	72804.88
858.512	72892.88
858.758	73024.88
859.003	72975.88
859.248	73005.88
859.493	72618.88
859.739	72565.88
859.984	72215.88
860.229	72047.88
860.474	71528.88
860.719	71362.88
860.964	70930.88
861.209	70439.88
861.454	69881.88
861.699	69560.88
861.943	69158.88
862.188	68809.88
862.433	68357.88
862.678	68019.88
862.922	68060.88
863.167	68042.88
863.411	67772.88
863.656	67731.88
863.9	67524.88
864.145	67282.88
864.389	66738.88
864.634	66726.88
864.878	66465.88
865.122	66186.88
865.366	66275.88
865.61	66021.88
865.855	65804.88
866.099	65717.88
866.343	65605.88
866.587	65355.88
866.831	65255.88
867.074	65172.88
867.318	65057.88
867.562	65277.88
867.806	65344.88
868.05	65095.88
868.293	64850.88
868.537	64524.88
868.78	64461.88
869.024	63877.88
869.267	63461.88
869.511	62983.88
869.754	62717.88
869.998	62218.88
870.241	61728.88
870.484	61039.88
870.728	60800.88
870.971	60485.88
871.214	60341.88
871.457	59939.88
871.7	60009.88
871.943	60099.88
872.186	60183.88
872.429	60052.88
872.672	60165.88
872.915	60026.88
873.158	59883.88
873.4	59940.88
873.643	59702.88
873.886	59310.88
874.128	59252.88
874.371	59092.88
874.613	58815.88
874.856	58631.88
875.098	58542.88
875.341	58467.88
875.583	58481.88
875.825	58140.88
876.068	57797.88
876.31	57351.88
876.552	56879.88
876.794	56541.88
877.036	56040.88
877.278	55541.88
877.52	55472.88
877.762	55205.88
878.004	55092.88
878.246	55041.88
878.488	55063.88
878.73	54738.88
878.972	54746.88
879.213	54635.88
879.455	54576.88
879.697	54531.88
879.938	54424.88
880.18	54081.88
880.421	54039.88
880.663	53954.88
880.904	53981.88
881.145	53919.88
881.387	53929.88
881.628	53990.88
881.869	53814.88
882.11	53449.88
882.352	53313.88
882.593	53083.88
882.834	53070.88
883.075	53034.88
883.316	52819.88
883.557	52391.88
883.797	52201.88
884.038	51987.88
884.279	51349.88
884.52	50643.88
884.761	50354.88
885.001	49737.88
885.242	49476.88
885.482	49176.88
885.723	48931.88
885.963	48672.88
886.204	48506.88
886.444	48380.88
886.685	48275.88
886.925	48095.88
887.165	47744.88
887.405	47411.88
887.646	47216.88
887.886	47259.88
888.126	47141.88
888.366	47100.88
888.606	47209.88
888.846	47312.88
889.086	47439.88
889.326	47378.88
889.565	47347.88
889.805	47352.88
890.045	47374.88
890.285	47152.88
890.524	47070.88
890.764	46918.88
891.003	46476.88
891.243	45857.88
891.482	45638.88
891.722	45200.88
891.961	44849.88
892.201	44492.88
892.44	44444.88
892.679	44158.88
892.918	43981.88
893.158	43835.88
893.397	43802.88
893.636	43696.88
893.875	43302.88
894.114	43258.88
894.353	43226.88
894.592	43074.88
894.831	42936.88
895.069	42623.88
895.308	42433.88
895.547	42184.88
895.786	41928.88
896.024	41809.88
896.263	41614.88
896.501	41643.88
896.74	41651.88
896.978	41592.88
897.217	41427.88
897.455	41327.88
897.694	41041.88
897.932	41112.88
898.17	40979.88
898.408	40911.88
898.646	40581.88
898.885	40339.88
899.123	40164.88
899.361	39955.88
899.599	39678.88
899.837	39532.88
900.075	39141.88
900.312	38989.88
900.55	38780.88
900.788	38156.88
901.026	38048.88
901.263	37653.88
901.501	37398.88
901.739	37167.88
901.976	37060.88
902.214	36810.88
902.451	36681.88
902.689	36662.88
902.926	36394.88
903.163	36497.88
903.401	36499.88
903.638	36512.88
903.875	36449.88
904.112	36413.88
904.349	36372.88
904.586	36342.88
904.823	36150.88
905.06	35931.88
905.297	35570.88
905.534	35401.88
905.771	35086.88
906.008	34912.88
906.245	34695.88
906.481	34548.88
906.718	34283.88
906.955	34257.88
907.191	34097.88
907.428	33861.88
907.664	33753.88
907.901	33629.88
908.137	33557.88
908.374	33383.88
908.61	33155.88
908.846	33073.88
909.083	32827.88
909.319	32649.88
909.555	32436.88
909.791	32189.88
910.027	32181.88
910.263	31757.88
910.499	31498.88
910.735	31423.88
910.971	31114.88
911.207	30989.88
911.443	30614.88
911.678	30540.88
911.914	30515.88
912.15	30428.88
912.385	30337.88
912.621	30379.88
912.857	30239.88
913.092	30265.88
913.328	30231.88
913.563	30222.88
913.798	30172.88
914.034	30037.88
914.269	29907.88
914.504	29985.88
914.739	29853.88
914.975	29593.88
915.21	29378.88
915.445	29064.88
915.68	28957.88
915.915	28680.88
916.15	28393.88
916.384	28147.88
916.619	27699.88
916.854	27514.88
917.089	27344.88
917.324	27294.88
917.558	27009.88
917.793	26943.88
918.028	26854.88
918.262	26862.88
918.497	26768.88
918.731	26695.88
918.965	26666.88
919.2	26484.88
919.434	26535.88
919.668	26470.88
919.903	26516.88
920.137	26257.88
920.371	26155.88
920.605	26052.88
920.839	25797.88
921.073	25637.88
921.307	25426.88
921.541	25266.88
921.775	25078.88
922.009	25053.88
922.243	24929.88
922.476	24898.88
922.71	24982.88
922.944	24795.88
923.177	24835.88
923.411	24892.88
923.644	24699.88
923.878	24623.88
924.111	24428.88
924.345	24484.88
924.578	24256.88
924.811	24316.88
925.045	24197.88
925.278	23929.88
925.511	23774.88
925.744	23628.88
925.977	23338.88
926.21	23125.88
926.443	22954.88
926.676	22847.88
926.909	22640.88
927.142	22437.88
927.375	22362.88
927.608	22265.88
927.841	22145.88
928.073	22062.88
928.306	21969.88
928.539	21920.88
928.771	21846.88
929.004	21788.88
929.236	21859.88
929.469	21911.88
929.701	21985.88
929.933	21888.88
930.166	21836.88
930.398	21870.88
930.63	21828.88
930.862	21720.88
931.094	21638.88
931.327	21395.88
931.559	21329.88
931.791	21131.88
932.023	21182.88
932.255	20945.88
932.486	20588.88
932.718	20574.88
932.95	20429.88
933.182	20379.88
933.413	20249.88
933.645	20143.88
933.877	19966.88
934.108	20020.88
934.34	19884.88
934.571	19801.88
934.803	19664.88
935.034	19746.88
935.265	19662.88
935.497	19540.88
935.728	19531.88
935.959	19333.88
936.19	19267.88
936.422	19183.88
936.653	19169.88
936.884	19061.88
937.115	19055.88
937.346	18801.88
937.577	18611.88
937.807	18522.88
938.038	18512.88
938.269	18509.88
938.5	18428.88
938.73	18349.88
938.961	18268.88
939.192	18270.88
939.422	18313.88
939.653	18244.88
939.883	18114.88
940.114	18184.88
940.344	18021.88
940.574	17996.88
940.805	17906.88
941.035	17848.88
941.265	17637.88
941.495	17675.88
941.726	17465.88
941.956	17318.88
942.186	17233.88
942.416	17062.88
942.646	16867.88
942.876	16802.88
943.105	16650.88
943.335	16541.88
943.565	16447.88
943.795	16267.88
944.024	16164.88
944.254	16059.88
944.484	16007.88
944.713	15894.88
944.943	15808.88
945.172	15712.88
945.402	15731.88
945.631	15695.88
945.86	15619.88
946.09	15511.88
946.319	15593.88
946.548	15558.88
946.777	15617.88
947.006	15545.88
947.235	15461.88
947.465	15339.88
947.694	15277.88
947.922	15199.88
948.151	15043.88
948.38	14881.88
948.609	14818.88
948.838	14658.88
949.067	14650.88
949.295	14526.88
949.524	14424.88
949.752	14258.88
949.981	14302.88
950.21	14100.88
950.438	14064.88
950.666	14002.88
950.895	13922.88
951.123	13776.88
951.351	13633.88
951.58	13602.88
951.808	13612.88
952.036	13478.88
952.264	13444.88
952.492	13412.88
952.72	13326.88
952.948	13237.88
953.176	13075.88
953.404	13101.88
953.632	12897.88
953.86	12798.88
954.088	12744.88
954.315	12641.88
954.543	12561.88
954.771	12512.88
954.998	12534.88
955.226	12382.88
955.453	12329.88
955.681	12301.88
955.908	12269.88
956.135	12282.88
956.363	12217.88
956.59	12202.88
956.817	12189.88
957.045	12126.88
957.272	12071.88
957.499	12001.88
957.726	11942.88
957.953	11934.88
958.18	11874.88
958.407	11707.88
958.634	11799.88
958.861	11726.88
959.087	11622.88
959.314	11572.88
959.541	11402.88
959.767	11428.88
959.994	11292.88
960.221	11214.88
960.447	11027.88
960.674	11020.88
960.9	10902.88
961.127	10880.88
961.353	10748.88
961.579	10722.88
961.806	10634.88
962.032	10554.88
962.258	10554.88
962.484	10512.88
962.71	10385.88
962.936	10435.88
963.162	10423.88
963.388	10325.88
963.614	10341.88
963.84	10273.88
964.066	10242.88
964.292	10247.88
964.518	10198.88
964.743	10167.88
964.969	10103.88
965.195	9983.88
965.42	9979.88
965.646	9916.88
965.871	9901.88
966.097	9877.88
966.322	9800.88
966.547	9820.88
966.773	9708.88
966.998	9626.88
967.223	9589.88
967.448	9500.88
967.674	9462.88
967.899	9362.88
968.124	9323.88
968.349	9345.88
968.574	9233.88
968.799	9234.88
969.024	9187.88
969.248	9129.88
969.473	9074.88
969.698	9041.88
969.923	8956.88
970.147	8949.88
970.372	8849.88
970.596	8859.88
970.821	8830.88
971.046	8662.88
971.27	8694.88
971.494	8624.88
971.719	8532.88
971.943	8533.88
972.167	8430.88
972.392	8338.88
972.616	8326.88
972.84	8260.88
973.064	8239.88
973.288	8174.88
973.512	8232.88
973.736	8137.88
973.96	8175.88
974.184	8095.88
974.408	7990.88
974.631	8014.88
974.855	8011.88
975.079	7967.88
975.303	7892.88
975.526	7910.88
975.75	7847.88
975.973	7805.88
976.197	7846.88
976.42	7732.88
976.644	7727.88
976.867	7677.88
977.09	7675.88
977.313	7501.88
977.537	7479.88
977.76	7455.88
977.983	7427.88
978.206	7349.88
978.429	7281.88
978.652	7266.88
978.875	7223.88
979.098	7158.88
979.321	7114.88
979.544	7008.88
979.767	6982.88
979.989	6948.88
980.212	6958.88
980.435	6875.88
980.657	6839.88
980.88	6832.88
981.102	6778.88
981.325	6800.88
981.547	6723.88
981.77	6700.88
981.992	6688.88
982.214	6636.88
982.437	6556.88
982.659	6612.88
982.881	6546.88
983.103	6498.88
983.325	6516.88
983.547	6514.88
983.769	6429.88
983.991	6382.88
984.213	6357.88
984.435	6352.88
984.657	6286.88
984.879	6267.88
985.1	6254.88
985.322	6252.88
985.544	6183.88
985.765	6117.88
985.987	6144.88
986.208	6072.88
986.43	6057.88
986.651	6040.88
986.873	6003.88
987.094	5982.88
987.315	5878.88
987.536	5880.88
987.758	5852.88
987.979	5731.88
988.2	5763.88
988.421	5706.88
988.642	5648.88
988.863	5600.88
989.084	5587.88
989.305	5553.88
989.526	5537.88
989.747	5479.88
989.967	5435.88
990.188	5435.88
990.409	5334.88
990.629	5352.88
990.85	5342.88
991.071	5264.88
991.291	5201.88
991.512	5184.88
991.732	5226.88
991.952	5168.88
992.173	5138.88
992.393	5117.88
992.613	5109.88
992.834	5127.88
993.054	5114.88
993.274	5047.88
993.494	5027.88
993.714	5052.88
993.934	5046.88
994.154	4992.88
994.374	4953.88
994.594	4958.88
994.813	4912.88
995.033	4886.88
995.253	4906.88
995.473	4864.88
995.692	4840.88
995.912	4736.88
996.131	4751.88
996.351	4746.88
996.57	4690.88
996.79	4627.88
997.009	4618.88
997.228	4550.88
997.448	4550.88
997.667	4446.88
997.886	4435.88
998.105	4393.88
998.325	4427.88
998.544	4371.88
998.763	4324.88
998.982	4343.88
999.201	4234.88
999.419	4241.88
999.638	4205.88
999.857	4186.88
1000.076	4165.88
1000.295	4116.88
1000.513	4193.88
1000.732	4120.88
1000.95	4064.88
1001.169	4058.88
1001.388	4047.88
1001.606	4040.88
1001.824	4009.88
1002.043	3998.88
1002.261	4010.88
1002.479	4056.88
1002.698	3965.88
1002.916	3919.88
1003.134	3890.88
1003.352	3891.88
1003.57	3876.88
1003.788	3891.88
1004.006	3828.88
1004.224	3853.88
1004.442	3837.88
1004.66	3835.88
1004.878	3761.88
1005.095	3749.88
1005.313	3735.88
1005.531	3737.88
1005.748	3760.88
1005.966	3802.88
1006.184	3659.88
1006.401	3633.88
1006.618	3605.88
1006.836	3603.88
1007.053	3583.88
1007.271	3624.88
1007.488	3618.88
1007.705	3631.88
1007.922	3588.88
1008.139	3543.88
1008.357	3587.88
1008.574	3551.88
1008.791	3644.88
1009.008	3611.88
1009.225	3627.88
1009.441	3643.88
1009.658	3635.88
1009.875	3666.88
1010.092	3599.88
1010.309	3636.88
1010.525	3578.88
1010.742	3513.88
1010.958	3479.88
1011.175	3467.88
1011.391	3436.88
1011.608	3393.88
1011.824	3361.88
1012.041	3331.88
1012.257	3312.88
1012.473	3279.88
1012.689	3251.88
1012.906	3242.88
1013.122	3245.88
1013.338	3229.88
1013.554	3271.88
1013.77	3265.88
1013.986	3231.88
1014.202	3287.88
1014.418	3299.88
1014.634	3347.88
1014.849	3371.88
1015.065	3443.88
1015.281	3435.88
1015.496	3364.88
1015.712	3371.88
1015.928	3314.88
1016.143	3210.88
1016.359	3225.88
1016.574	3126.88
1016.79	3092.88
1017.005	3059.88
1017.22	2929.88
1017.435	2927.88
1017.651	2889.88
1017.866	2813.88
1018.081	2758.88
1018.296	2729.88
1018.511	2707.88
1018.726	2706.88
1018.941	2696.88
1019.156	2655.88
1019.371	2575.88
1019.586	2609.88
1019.801	2589.88
1020.015	2541.88
1020.23	2535.88
1020.445	2537.88
1020.659	2503.88
1020.874	2502.88
1021.088	2415.88
1021.303	2368.88
1021.517	2350.88
1021.732	2312.88
1021.946	2320.88
1022.16	2318.88
1022.375	2264.88
1022.589	2244.88
1022.803	2178.88
1023.017	2159.88
1023.231	2129.88
1023.445	2085.88
1023.659	2021.88
1023.873	2037.88
1024.087	1956.88
1024.301	1940.88
1024.515	1910.88
1024.729	1891.88
1024.942	1848.88
1025.156	1823.88
1025.37	1797.88
1025.583	1740.88
1025.797	1719.88
1026.01	1691.88
1026.224	1664.88
1026.437	1612.88
1026.651	1541.88
1026.864	1521.88
1027.077	1501.88
1027.291	1434.88
1027.504	1427.88
1027.717	1364.88
1027.93	1358.88
1028.143	1303.88
1028.356	1250.88
1028.569	1195.88
1028.782	1111.88
1028.995	-3.12
1029.208	-2.12
1029.421	-0.12
1029.634	-3.12
