Data from QEP037381__319__15-35-51-558.txt Node

Date: Mon Mar 14 15:35:51 EDT 2022
User: dcclab
Spectrometer: QEP03738
Trigger mode: 4
Integration Time (sec): 2.500000E0
Scans to average: 1
Electric dark correction enabled: true
Nonlinearity correction enabled: false
Boxcar width: 0
XAxis mode: Wavelengths
Number of Pixels in Spectrum: 1044
>>>>>Begin Spectral Data<<<<<
783.959	11.38
784.218	-2.62
784.476	-1.62
784.734	-2.62
784.992	261.38
785.251	257.38
785.509	250.38
785.767	243.38
786.025	255.38
786.283	247.38
786.541	254.38
786.798	254.38
787.056	241.38
787.314	235.38
787.572	256.38
787.83	239.38
788.087	247.38
788.345	252.38
788.602	245.38
788.86	244.38
789.117	245.38
789.375	254.38
789.632	260.38
789.89	243.38
790.147	256.38
790.404	252.38
790.661	261.38
790.919	282.38
791.176	259.38
791.433	276.38
791.69	283.38
791.947	276.38
792.204	265.38
792.461	301.38
792.718	295.38
792.974	299.38
793.231	322.38
793.488	343.38
793.745	342.38
794.001	362.38
794.258	376.38
794.514	387.38
794.771	397.38
795.027	425.38
795.284	425.38
795.54	469.38
795.797	485.38
796.053	538.38
796.309	557.38
796.565	624.38
796.822	671.38
797.078	770.38
797.334	888.38
797.59	1051.38
797.846	1301.38
798.102	1691.38
798.358	2278.38
798.614	3232.38
798.869	4715.38
799.125	6897.38
799.381	10126.38
799.637	14283.38
799.892	19469.38
800.148	24901.38
800.403	30451.38
800.659	35105.38
800.914	38847.38
801.17	41557.38
801.425	43145.38
801.68	44342.38
801.936	45583.38
802.191	46604.38
802.446	47496.38
802.701	48474.38
802.957	49729.38
803.212	50611.38
803.467	51646.38
803.722	52633.38
803.977	53739.38
804.232	54960.38
804.486	55876.38
804.741	56856.38
804.996	58139.38
805.251	59261.38
805.505	60313.38
805.76	61243.38
806.015	62209.38
806.269	62932.38
806.524	63848.38
806.778	64403.38
807.033	64964.38
807.287	65662.38
807.541	66578.38
807.796	67633.38
808.05	68399.38
808.304	68965.38
808.558	69480.38
808.812	69899.38
809.066	70423.38
809.32	71027.38
809.574	71651.38
809.828	72194.38
810.082	72753.38
810.336	73346.38
810.59	74118.38
810.844	75098.38
811.097	75804.38
811.351	77239.38
811.605	78417.38
811.858	79657.38
812.112	80837.38
812.365	82348.38
812.619	83749.38
812.872	84876.38
813.126	86021.38
813.379	87227.38
813.632	88410.38
813.885	89225.38
814.139	90907.38
814.392	92144.38
814.645	93552.38
814.898	95502.38
815.151	97259.38
815.404	99011.38
815.657	100807.38
815.91	102296.38
816.163	103189.38
816.416	104497.38
816.668	105422.38
816.921	106092.38
817.174	106177.38
817.426	106515.38
817.679	106452.38
817.931	106337.38
818.184	106418.38
818.436	106551.38
818.689	106491.38
818.941	106708.38
819.194	107218.38
819.446	107590.38
819.698	108175.38
819.95	108674.38
820.202	109214.38
820.455	109598.38
820.707	109981.38
820.959	110076.38
821.211	109970.38
821.462	110055.38
821.714	109502.38
821.966	109234.38
822.218	108868.38
822.47	108295.38
822.722	108142.38
822.973	107555.38
823.225	107318.38
823.476	107268.38
823.728	106977.38
823.979	107420.38
824.231	107360.38
824.482	107321.38
824.734	107652.38
824.985	107478.38
825.236	107435.38
825.487	107068.38
825.739	106684.38
825.99	106574.38
826.241	106236.38
826.492	105713.38
826.743	105273.38
826.994	104964.38
827.245	104530.38
827.496	104318.38
827.747	104345.38
827.997	104222.38
828.248	104271.38
828.499	104281.38
828.75	104541.38
829	104672.38
829.251	104308.38
829.501	104171.38
829.752	103988.38
830.002	103457.38
830.253	102707.38
830.503	102261.38
830.753	101411.38
831.004	100908.38
831.254	100639.38
831.504	100575.38
831.754	100327.38
832.004	100178.38
832.254	100137.38
832.504	100355.38
832.754	100189.38
833.004	99892.38
833.254	99873.38
833.504	100087.38
833.754	99827.38
834.003	99202.38
834.253	98941.38
834.503	98342.38
834.752	97988.38
835.002	97467.38
835.252	96864.38
835.501	96608.38
835.75	96330.38
836	95983.38
836.249	96013.38
836.499	95999.38
836.748	95719.38
836.997	95655.38
837.246	95944.38
837.495	96494.38
837.744	96977.38
837.993	97395.38
838.242	97498.38
838.491	97359.38
838.74	96556.38
838.989	95146.38
839.238	94413.38
839.487	93751.38
839.736	93222.38
839.984	92802.38
840.233	92177.38
840.482	91731.38
840.73	91474.38
840.979	91048.38
841.227	90834.38
841.476	90678.38
841.724	90106.38
841.972	90104.38
842.221	89951.38
842.469	89772.38
842.717	89068.38
842.965	88807.38
843.213	88705.38
843.461	88400.38
843.71	88055.38
843.958	87769.38
844.205	87387.38
844.453	87338.38
844.701	87182.38
844.949	87089.38
845.197	87000.38
845.445	87153.38
845.692	87270.38
845.94	87585.38
846.188	87407.38
846.435	87244.38
846.683	86960.38
846.93	86585.38
847.178	86055.38
847.425	85440.38
847.672	84896.38
847.92	84156.38
848.167	83495.38
848.414	82737.38
848.661	82121.38
848.908	81861.38
849.155	81505.38
849.402	81425.38
849.649	81634.38
849.896	81860.38
850.143	82361.38
850.39	82740.38
850.637	82667.38
850.884	82625.38
851.131	82347.38
851.377	82127.38
851.624	81815.38
851.87	81431.38
852.117	81031.38
852.364	80582.38
852.61	80457.38
852.856	79948.38
853.103	79651.38
853.349	79542.38
853.595	78981.38
853.842	78445.38
854.088	78613.38
854.334	78433.38
854.58	78445.38
854.826	78206.38
855.072	77456.38
855.318	76771.38
855.564	76400.38
855.81	75880.38
856.056	75223.38
856.302	74492.38
856.548	73925.38
856.793	73472.38
857.039	73201.38
857.285	72985.38
857.53	72963.38
857.776	73106.38
858.021	73400.38
858.267	73408.38
858.512	73779.38
858.758	73873.38
859.003	73875.38
859.248	73758.38
859.493	73638.38
859.739	73371.38
859.984	73118.38
860.229	72923.38
860.474	72569.38
860.719	72171.38
860.964	71490.38
861.209	71175.38
861.454	70676.38
861.699	70354.38
861.943	69881.38
862.188	69491.38
862.433	69173.38
862.678	68989.38
862.922	68764.38
863.167	68790.38
863.411	68659.38
863.656	68564.38
863.9	68270.38
864.145	68046.38
864.389	67851.38
864.634	67262.38
864.878	67194.38
865.122	66956.38
865.366	66930.38
865.61	66773.38
865.855	66736.38
866.099	66513.38
866.343	66367.38
866.587	66253.38
866.831	66036.38
867.074	66041.38
867.318	65942.38
867.562	65956.38
867.806	66157.38
868.05	65846.38
868.293	65826.38
868.537	65446.38
868.78	65156.38
869.024	64624.38
869.267	64262.38
869.511	63833.38
869.754	63322.38
869.998	62943.38
870.241	62124.38
870.484	61778.38
870.728	61540.38
870.971	61191.38
871.214	60904.38
871.457	60813.38
871.7	60749.38
871.943	60752.38
872.186	60854.38
872.429	60897.38
872.672	61086.38
872.915	60604.38
873.158	60567.38
873.4	60575.38
873.643	60221.38
873.886	60270.38
874.128	60036.38
874.371	59768.38
874.613	59524.38
874.856	59365.38
875.098	59280.38
875.341	59320.38
875.583	59073.38
875.825	58716.38
876.068	58570.38
876.31	58159.38
876.552	57556.38
876.794	57210.38
877.036	56558.38
877.278	56317.38
877.52	56301.38
877.762	56079.38
878.004	55758.38
878.246	55641.38
878.488	55366.38
878.73	55522.38
878.972	55344.38
879.213	55330.38
879.455	55255.38
879.697	55184.38
879.938	54952.38
880.18	54771.38
880.421	54578.38
880.663	54502.38
880.904	54651.38
881.145	54492.38
881.387	54656.38
881.628	54451.38
881.869	54355.38
882.11	54144.38
882.352	53998.38
882.593	53703.38
882.834	53630.38
883.075	53490.38
883.316	53321.38
883.557	52972.38
883.797	52775.38
884.038	52668.38
884.279	51852.38
884.52	51168.38
884.761	50925.38
885.001	50420.38
885.242	50003.38
885.482	49883.38
885.723	49504.38
885.963	49207.38
886.204	49091.38
886.444	48810.38
886.685	48891.38
886.925	48683.38
887.165	48306.38
887.405	48105.38
887.646	47887.38
887.886	47749.38
888.126	47701.38
888.366	47677.38
888.606	47768.38
888.846	47792.38
889.086	47922.38
889.326	47901.38
889.565	47819.38
889.805	47799.38
890.045	47900.38
890.285	47688.38
890.524	47564.38
890.764	47217.38
891.003	46895.38
891.243	46381.38
891.482	45968.38
891.722	45615.38
891.961	45229.38
892.201	45060.38
892.44	44809.38
892.679	44577.38
892.918	44537.38
893.158	44367.38
893.397	44231.38
893.636	44049.38
893.875	43980.38
894.114	43770.38
894.353	43593.38
894.592	43524.38
894.831	43290.38
895.069	42953.38
895.308	42818.38
895.547	42553.38
895.786	42416.38
896.024	42277.38
896.263	42051.38
896.501	42063.38
896.74	42051.38
896.978	42048.38
897.217	41843.38
897.455	41736.38
897.694	41461.38
897.932	41420.38
898.17	41487.38
898.408	41239.38
898.646	41058.38
898.885	40909.38
899.123	40669.38
899.361	40281.38
899.599	40068.38
899.837	39898.38
900.075	39812.38
900.312	39252.38
900.55	38953.38
900.788	38691.38
901.026	38286.38
901.263	37924.38
901.501	37737.38
901.739	37504.38
901.976	37357.38
902.214	37245.38
902.451	37180.38
902.689	37004.38
902.926	37034.38
903.163	36746.38
903.401	36933.38
903.638	36949.38
903.875	36806.38
904.112	36881.38
904.349	36824.38
904.586	36758.38
904.823	36702.38
905.06	36334.38
905.297	36194.38
905.534	35768.38
905.771	35538.38
906.008	35253.38
906.245	35169.38
906.481	34873.38
906.718	34717.38
906.955	34605.38
907.191	34412.38
907.428	34317.38
907.664	34091.38
907.901	34092.38
908.137	33903.38
908.374	33800.38
908.61	33580.38
908.846	33437.38
909.083	33312.38
909.319	33179.38
909.555	32771.38
909.791	32564.38
910.027	32362.38
910.263	32108.38
910.499	31933.38
910.735	31767.38
910.971	31522.38
911.207	31290.38
911.443	31073.38
911.678	30932.38
911.914	30776.38
912.15	30645.38
912.385	30693.38
912.621	30683.38
912.857	30693.38
913.092	30554.38
913.328	30519.38
913.563	30492.38
913.798	30535.38
914.034	30382.38
914.269	30314.38
914.504	30247.38
914.739	30257.38
914.975	29883.38
915.21	29756.38
915.445	29359.38
915.68	29222.38
915.915	29018.38
916.15	28738.38
916.384	28499.38
916.619	28103.38
916.854	27949.38
917.089	27842.38
917.324	27510.38
917.558	27469.38
917.793	27219.38
918.028	27084.38
918.262	27139.38
918.497	26925.38
918.731	27114.38
918.965	26980.38
919.2	26771.38
919.434	26791.38
919.668	26837.38
919.903	26711.38
920.137	26621.38
920.371	26473.38
920.605	26229.38
920.839	26136.38
921.073	25963.38
921.307	25877.38
921.541	25593.38
921.775	25382.38
922.009	25316.38
922.243	25298.38
922.476	25194.38
922.71	25178.38
922.944	25073.38
923.177	25104.38
923.411	25068.38
923.644	24969.38
923.878	24938.38
924.111	24952.38
924.345	24647.38
924.578	24657.38
924.811	24507.38
925.045	24317.38
925.278	24224.38
925.511	24004.38
925.744	23915.38
925.977	23650.38
926.21	23466.38
926.443	23212.38
926.676	23063.38
926.909	22996.38
927.142	22794.38
927.375	22614.38
927.608	22561.38
927.841	22354.38
928.073	22325.38
928.306	22121.38
928.539	22166.38
928.771	22121.38
929.004	22081.38
929.236	22187.38
929.469	22133.38
929.701	22223.38
929.933	22192.38
930.166	22130.38
930.398	22066.38
930.63	21990.38
930.862	21994.38
931.094	21768.38
931.327	21713.38
931.559	21527.38
931.791	21352.38
932.023	21259.38
932.255	21152.38
932.486	20970.38
932.718	20842.38
932.95	20689.38
933.182	20619.38
933.413	20446.38
933.645	20293.38
933.877	20305.38
934.108	20235.38
934.34	20114.38
934.571	20044.38
934.803	19924.38
935.034	19895.38
935.265	19743.38
935.497	19827.38
935.728	19660.38
935.959	19580.38
936.19	19559.38
936.422	19314.38
936.653	19264.38
936.884	19138.38
937.115	18957.38
937.346	19054.38
937.577	18914.38
937.807	18763.38
938.038	18636.38
938.269	18652.38
938.5	18607.38
938.73	18555.38
938.961	18401.38
939.192	18434.38
939.422	18429.38
939.653	18387.38
939.883	18307.38
940.114	18296.38
940.344	18420.38
940.574	18211.38
940.805	18142.38
941.035	17941.38
941.265	17919.38
941.495	17751.38
941.726	17621.38
941.956	17581.38
942.186	17427.38
942.416	17289.38
942.646	17066.38
942.876	16956.38
943.105	16839.38
943.335	16736.38
943.565	16621.38
943.795	16419.38
944.024	16372.38
944.254	16173.38
944.484	16173.38
944.713	16085.38
944.943	16041.38
945.172	15934.38
945.402	15845.38
945.631	15809.38
945.86	15783.38
946.09	15851.38
946.319	15775.38
946.548	15804.38
946.777	15705.38
947.006	15594.38
947.235	15609.38
947.465	15454.38
947.694	15409.38
947.922	15293.38
948.151	15232.38
948.38	15054.38
948.609	14988.38
948.838	14883.38
949.067	14745.38
949.295	14686.38
949.524	14533.38
949.752	14554.38
949.981	14398.38
950.21	14325.38
950.438	14202.38
950.666	14139.38
950.895	14051.38
951.123	13964.38
951.351	13930.38
951.58	13889.38
951.808	13768.38
952.036	13630.38
952.264	13614.38
952.492	13597.38
952.72	13384.38
952.948	13444.38
953.176	13302.38
953.404	13234.38
953.632	13043.38
953.86	12975.38
954.088	12920.38
954.315	12815.38
954.543	12736.38
954.771	12678.38
954.998	12608.38
955.226	12558.38
955.453	12476.38
955.681	12381.38
955.908	12458.38
956.135	12368.38
956.363	12373.38
956.59	12355.38
956.817	12318.38
957.045	12197.38
957.272	12200.38
957.499	12150.38
957.726	12026.38
957.953	12053.38
958.18	11995.38
958.407	11902.38
958.634	11902.38
958.861	11780.38
959.087	11696.38
959.314	11578.38
959.541	11578.38
959.767	11474.38
959.994	11342.38
960.221	11318.38
960.447	11149.38
960.674	11121.38
960.9	11013.38
961.127	10882.38
961.353	10918.38
961.579	10743.38
961.806	10745.38
962.032	10681.38
962.258	10607.38
962.484	10622.38
962.71	10565.38
962.936	10485.38
963.162	10480.38
963.388	10428.38
963.614	10454.38
963.84	10381.38
964.066	10325.38
964.292	10283.38
964.518	10302.38
964.743	10180.38
964.969	10224.38
965.195	10173.38
965.42	10110.38
965.646	9995.38
965.871	10047.38
966.097	9966.38
966.322	9959.38
966.547	9875.38
966.773	9875.38
966.998	9735.38
967.223	9707.38
967.448	9648.38
967.674	9528.38
967.899	9515.38
968.124	9412.38
968.349	9438.38
968.574	9344.38
968.799	9326.38
969.024	9300.38
969.248	9260.38
969.473	9185.38
969.698	9176.38
969.923	9066.38
970.147	9048.38
970.372	8929.38
970.596	8931.38
970.821	8855.38
971.046	8851.38
971.27	8795.38
971.494	8726.38
971.719	8642.38
971.943	8575.38
972.167	8526.38
972.392	8438.38
972.616	8352.38
972.84	8327.38
973.064	8342.38
973.288	8307.38
973.512	8275.38
973.736	8229.38
973.96	8206.38
974.184	8139.38
974.408	8150.38
974.631	8062.38
974.855	8082.38
975.079	8052.38
975.303	7990.38
975.526	8025.38
975.75	7964.38
975.973	7903.38
976.197	7885.38
976.42	7882.38
976.644	7840.38
976.867	7763.38
977.09	7716.38
977.313	7671.38
977.537	7529.38
977.76	7528.38
977.983	7506.38
978.206	7422.38
978.429	7388.38
978.652	7273.38
978.875	7300.38
979.098	7232.38
979.321	7210.38
979.544	7146.38
979.767	7066.38
979.989	7064.38
980.212	6978.38
980.435	6980.38
980.657	6882.38
980.88	6927.38
981.102	6852.38
981.325	6872.38
981.547	6810.38
981.77	6761.38
981.992	6692.38
982.214	6680.38
982.437	6669.38
982.659	6647.38
982.881	6631.38
983.103	6608.38
983.325	6555.38
983.547	6522.38
983.769	6456.38
983.991	6421.38
984.213	6443.38
984.435	6376.38
984.657	6378.38
984.879	6373.38
985.1	6314.38
985.322	6275.38
985.544	6235.38
985.765	6206.38
985.987	6159.38
986.208	6167.38
986.43	6099.38
986.651	6044.38
986.873	6008.38
987.094	6003.38
987.315	5926.38
987.536	5896.38
987.758	5875.38
987.979	5815.38
988.2	5818.38
988.421	5771.38
988.642	5730.38
988.863	5694.38
989.084	5632.38
989.305	5624.38
989.526	5559.38
989.747	5504.38
989.967	5490.38
990.188	5476.38
990.409	5463.38
990.629	5419.38
990.85	5379.38
991.071	5265.38
991.291	5312.38
991.512	5232.38
991.732	5268.38
991.952	5192.38
992.173	5225.38
992.393	5158.38
992.613	5121.38
992.834	5115.38
993.054	5119.38
993.274	5129.38
993.494	5113.38
993.714	5115.38
993.934	5038.38
994.154	5054.38
994.374	4998.38
994.594	4973.38
994.813	5011.38
995.033	4960.38
995.253	4913.38
995.473	4925.38
995.692	4859.38
995.912	4794.38
996.131	4772.38
996.351	4751.38
996.57	4700.38
996.79	4677.38
997.009	4627.38
997.228	4583.38
997.448	4540.38
997.667	4512.38
997.886	4427.38
998.105	4402.38
998.325	4418.38
998.544	4413.38
998.763	4334.38
998.982	4342.38
999.201	4276.38
999.419	4257.38
999.638	4277.38
999.857	4240.38
1000.076	4209.38
1000.295	4185.38
1000.513	4173.38
1000.732	4213.38
1000.95	4063.38
1001.169	4151.38
1001.388	4072.38
1001.606	4119.38
1001.824	4104.38
1002.043	4076.38
1002.261	4012.38
1002.479	4042.38
1002.698	3998.38
1002.916	3909.38
1003.134	3970.38
1003.352	3973.38
1003.57	3933.38
1003.788	3934.38
1004.006	3882.38
1004.224	3855.38
1004.442	3881.38
1004.66	3841.38
1004.878	3847.38
1005.095	3802.38
1005.313	3823.38
1005.531	3765.38
1005.748	3754.38
1005.966	3849.38
1006.184	3741.38
1006.401	3739.38
1006.618	3707.38
1006.836	3679.38
1007.053	3639.38
1007.271	3643.38
1007.488	3650.38
1007.705	3637.38
1007.922	3618.38
1008.139	3595.38
1008.357	3620.38
1008.574	3576.38
1008.791	3607.38
1009.008	3678.38
1009.225	3664.38
1009.441	3700.38
1009.658	3683.38
1009.875	3683.38
1010.092	3651.38
1010.309	3676.38
1010.525	3684.38
1010.742	3539.38
1010.958	3498.38
1011.175	3485.38
1011.391	3453.38
1011.608	3493.38
1011.824	3448.38
1012.041	3353.38
1012.257	3371.38
1012.473	3328.38
1012.689	3344.38
1012.906	3294.38
1013.122	3310.38
1013.338	3276.38
1013.554	3274.38
1013.77	3281.38
1013.986	3267.38
1014.202	3304.38
1014.418	3350.38
1014.634	3376.38
1014.849	3437.38
1015.065	3435.38
1015.281	3481.38
1015.496	3435.38
1015.712	3410.38
1015.928	3364.38
1016.143	3348.38
1016.359	3250.38
1016.574	3193.38
1016.79	3164.38
1017.005	3093.38
1017.22	2984.38
1017.435	2932.38
1017.651	2910.38
1017.866	2827.38
1018.081	2821.38
1018.296	2745.38
1018.511	2695.38
1018.726	2697.38
1018.941	2670.38
1019.156	2662.38
1019.371	2627.38
1019.586	2668.38
1019.801	2577.38
1020.015	2584.38
1020.23	2587.38
1020.445	2579.38
1020.659	2557.38
1020.874	2482.38
1021.088	2450.38
1021.303	2411.38
1021.517	2422.38
1021.732	2366.38
1021.946	2328.38
1022.16	2346.38
1022.375	2296.38
1022.589	2259.38
1022.803	2206.38
1023.017	2179.38
1023.231	2146.38
1023.445	2135.38
1023.659	2081.38
1023.873	2046.38
1024.087	1935.38
1024.301	1933.38
1024.515	1885.38
1024.729	1921.38
1024.942	1838.38
1025.156	1882.38
1025.37	1814.38
1025.583	1762.38
1025.797	1728.38
1026.01	1714.38
1026.224	1632.38
1026.437	1597.38
1026.651	1578.38
1026.864	1507.38
1027.077	1517.38
1027.291	1458.38
1027.504	1436.38
1027.717	1380.38
1027.93	1354.38
1028.143	1301.38
1028.356	1299.38
1028.569	1203.38
1028.782	1130.38
1028.995	-0.62
1029.208	-0.62
1029.421	-3.62
1029.634	0.38
