Data from QEP037381__316__15-35-44-057.txt Node

Date: Mon Mar 14 15:35:44 EDT 2022
User: dcclab
Spectrometer: QEP03738
Trigger mode: 4
Integration Time (sec): 2.500000E0
Scans to average: 1
Electric dark correction enabled: true
Nonlinearity correction enabled: false
Boxcar width: 0
XAxis mode: Wavelengths
Number of Pixels in Spectrum: 1044
>>>>>Begin Spectral Data<<<<<
783.959	14.75
784.218	1.75
784.476	-3.25
784.734	-1.25
784.992	269.75
785.251	244.75
785.509	251.75
785.767	229.75
786.025	252.75
786.283	247.75
786.541	247.75
786.798	255.75
787.056	241.75
787.314	239.75
787.572	238.75
787.83	241.75
788.087	258.75
788.345	241.75
788.602	247.75
788.86	255.75
789.117	257.75
789.375	241.75
789.632	250.75
789.89	235.75
790.147	262.75
790.404	260.75
790.661	269.75
790.919	281.75
791.176	270.75
791.433	273.75
791.69	281.75
791.947	291.75
792.204	274.75
792.461	297.75
792.718	308.75
792.974	306.75
793.231	319.75
793.488	344.75
793.745	343.75
794.001	365.75
794.258	369.75
794.514	369.75
794.771	398.75
795.027	417.75
795.284	433.75
795.54	464.75
795.797	486.75
796.053	531.75
796.309	570.75
796.565	602.75
796.822	670.75
797.078	776.75
797.334	897.75
797.59	1036.75
797.846	1301.75
798.102	1683.75
798.358	2279.75
798.614	3230.75
798.869	4662.75
799.125	6869.75
799.381	10114.75
799.637	14277.75
799.892	19399.75
800.148	24920.75
800.403	30440.75
800.659	35034.75
800.914	38817.75
801.17	41494.75
801.425	43013.75
801.68	44336.75
801.936	45337.75
802.191	46356.75
802.446	47440.75
802.701	48556.75
802.957	49470.75
803.212	50605.75
803.467	51451.75
803.722	52637.75
803.977	53693.75
804.232	54657.75
804.486	55884.75
804.741	56829.75
804.996	57991.75
805.251	59057.75
805.505	60160.75
805.76	61046.75
806.015	62051.75
806.269	62873.75
806.524	63552.75
806.778	64253.75
807.033	64771.75
807.287	65567.75
807.541	66499.75
807.796	67534.75
808.05	68200.75
808.304	68818.75
808.558	69427.75
808.812	69923.75
809.066	70364.75
809.32	70960.75
809.574	71657.75
809.828	71965.75
810.082	72742.75
810.336	73204.75
810.59	73926.75
810.844	74845.75
811.097	75925.75
811.351	77134.75
811.605	78324.75
811.858	79631.75
812.112	80844.75
812.365	82283.75
812.619	83461.75
812.872	84606.75
813.126	85812.75
813.379	87040.75
813.632	88038.75
813.885	89091.75
814.139	90715.75
814.392	91933.75
814.645	93528.75
814.898	95307.75
815.151	97096.75
815.404	98742.75
815.657	100695.75
815.91	102191.75
816.163	103374.75
816.416	104307.75
816.668	105119.75
816.921	105968.75
817.174	106294.75
817.426	106405.75
817.679	106037.75
817.931	106227.75
818.184	106175.75
818.436	106269.75
818.689	106410.75
818.941	106470.75
819.194	106878.75
819.446	107516.75
819.698	107950.75
819.95	108436.75
820.202	108942.75
820.455	109490.75
820.707	109691.75
820.959	109765.75
821.211	109831.75
821.462	109785.75
821.714	109512.75
821.966	109223.75
822.218	108868.75
822.47	108068.75
822.722	107841.75
822.973	107480.75
823.225	106923.75
823.476	106906.75
823.728	106909.75
823.979	107234.75
824.231	107053.75
824.482	107188.75
824.734	107292.75
824.985	107184.75
825.236	107256.75
825.487	106943.75
825.739	106360.75
825.99	106184.75
826.241	105816.75
826.492	105428.75
826.743	104988.75
826.994	104805.75
827.245	104490.75
827.496	104113.75
827.747	104096.75
827.997	104021.75
828.248	104074.75
828.499	104514.75
828.75	104206.75
829	104616.75
829.251	104195.75
829.501	104122.75
829.752	103772.75
830.002	103105.75
830.253	102397.75
830.503	102206.75
830.753	101286.75
831.004	100815.75
831.254	100347.75
831.504	100195.75
831.754	100227.75
832.004	99865.75
832.254	99786.75
832.504	99923.75
832.754	100052.75
833.004	100195.75
833.254	99874.75
833.504	99891.75
833.754	99444.75
834.003	98845.75
834.253	98502.75
834.503	97952.75
834.752	97604.75
835.002	97099.75
835.252	96461.75
835.501	96272.75
835.75	96044.75
836	95947.75
836.249	95701.75
836.499	95618.75
836.748	95419.75
836.997	95454.75
837.246	95801.75
837.495	96241.75
837.744	96721.75
837.993	97068.75
838.242	97421.75
838.491	97295.75
838.74	96075.75
838.989	95045.75
839.238	94072.75
839.487	93325.75
839.736	92970.75
839.984	92544.75
840.233	92015.75
840.482	91519.75
840.73	91374.75
840.979	91077.75
841.227	90742.75
841.476	90515.75
841.724	90132.75
841.972	89882.75
842.221	89744.75
842.469	89441.75
842.717	88835.75
842.965	88728.75
843.213	88394.75
843.461	88291.75
843.71	87873.75
843.958	87530.75
844.205	87229.75
844.453	87058.75
844.701	86693.75
844.949	87071.75
845.197	86716.75
845.445	86840.75
845.692	87067.75
845.94	87389.75
846.188	87202.75
846.435	87031.75
846.683	86586.75
846.93	86242.75
847.178	85933.75
847.425	85237.75
847.672	84557.75
847.92	83927.75
848.167	83300.75
848.414	82494.75
848.661	81804.75
848.908	81436.75
849.155	81248.75
849.402	81170.75
849.649	81299.75
849.896	81557.75
850.143	82237.75
850.39	82354.75
850.637	82347.75
850.884	82085.75
851.131	82265.75
851.377	81635.75
851.624	81563.75
851.87	81204.75
852.117	80920.75
852.364	80494.75
852.61	80218.75
852.856	79805.75
853.103	79416.75
853.349	79233.75
853.595	79015.75
853.842	78318.75
854.088	78424.75
854.334	78435.75
854.58	78190.75
854.826	77698.75
855.072	77147.75
855.318	76775.75
855.564	76157.75
855.81	75390.75
856.056	74783.75
856.302	74201.75
856.548	73910.75
856.793	73346.75
857.039	72925.75
857.285	72930.75
857.53	72837.75
857.776	73020.75
858.021	73186.75
858.267	73390.75
858.512	73575.75
858.758	73651.75
859.003	73674.75
859.248	73602.75
859.493	73409.75
859.739	73186.75
859.984	72950.75
860.229	72833.75
860.474	72067.75
860.719	72053.75
860.964	71417.75
861.209	70879.75
861.454	70488.75
861.699	70040.75
861.943	69727.75
862.188	69428.75
862.433	68957.75
862.678	68538.75
862.922	68930.75
863.167	68523.75
863.411	68534.75
863.656	68350.75
863.9	68165.75
864.145	67741.75
864.389	67605.75
864.634	67253.75
864.878	67144.75
865.122	66735.75
865.366	66565.75
865.61	66377.75
865.855	66354.75
866.099	66342.75
866.343	66239.75
866.587	65888.75
866.831	65662.75
867.074	65859.75
867.318	65729.75
867.562	65814.75
867.806	65616.75
868.05	65573.75
868.293	65358.75
868.537	65154.75
868.78	64969.75
869.024	64422.75
869.267	63991.75
869.511	63560.75
869.754	63029.75
869.998	62611.75
870.241	62074.75
870.484	61606.75
870.728	61281.75
870.971	60909.75
871.214	60724.75
871.457	60354.75
871.7	60426.75
871.943	60740.75
872.186	60647.75
872.429	60587.75
872.672	60614.75
872.915	60525.75
873.158	60443.75
873.4	60442.75
873.643	60104.75
873.886	60036.75
874.128	59645.75
874.371	59715.75
874.613	59598.75
874.856	59210.75
875.098	59011.75
875.341	59140.75
875.583	58847.75
875.825	58644.75
876.068	58220.75
876.31	57944.75
876.552	57524.75
876.794	57089.75
877.036	56526.75
877.278	55956.75
877.52	56014.75
877.762	55701.75
878.004	55483.75
878.246	55497.75
878.488	55305.75
878.73	55194.75
878.972	55197.75
879.213	55063.75
879.455	55219.75
879.697	55049.75
879.938	54799.75
880.18	54648.75
880.421	54560.75
880.663	54458.75
880.904	54471.75
881.145	54453.75
881.387	54426.75
881.628	54289.75
881.869	54144.75
882.11	54016.75
882.352	53809.75
882.593	53387.75
882.834	53535.75
883.075	53231.75
883.316	53276.75
883.557	52921.75
883.797	52710.75
884.038	52306.75
884.279	51706.75
884.52	50958.75
884.761	50757.75
885.001	50117.75
885.242	49748.75
885.482	49517.75
885.723	49224.75
885.963	49132.75
886.204	48945.75
886.444	48812.75
886.685	48641.75
886.925	48314.75
887.165	48374.75
887.405	47863.75
887.646	47695.75
887.886	47451.75
888.126	47569.75
888.366	47541.75
888.606	47498.75
888.846	47455.75
889.086	47788.75
889.326	47814.75
889.565	47741.75
889.805	47841.75
890.045	47677.75
890.285	47520.75
890.524	47410.75
890.764	47169.75
891.003	46792.75
891.243	46299.75
891.482	45934.75
891.722	45561.75
891.961	45110.75
892.201	45025.75
892.44	44687.75
892.679	44308.75
892.918	44381.75
893.158	44179.75
893.397	44140.75
893.636	43953.75
893.875	43775.75
894.114	43596.75
894.353	43479.75
894.592	43403.75
894.831	43073.75
895.069	42889.75
895.308	42601.75
895.547	42431.75
895.786	42366.75
896.024	42089.75
896.263	42065.75
896.501	41916.75
896.74	42029.75
896.978	41764.75
897.217	41758.75
897.455	41736.75
897.694	41547.75
897.932	41215.75
898.17	41146.75
898.408	41241.75
898.646	40924.75
898.885	40766.75
899.123	40535.75
899.361	40307.75
899.599	39995.75
899.837	39749.75
900.075	39461.75
900.312	39123.75
900.55	38927.75
900.788	38439.75
901.026	38399.75
901.263	37893.75
901.501	37636.75
901.739	37444.75
901.976	37235.75
902.214	36996.75
902.451	36988.75
902.689	36910.75
902.926	36797.75
903.163	36711.75
903.401	36812.75
903.638	36834.75
903.875	36745.75
904.112	36767.75
904.349	36621.75
904.586	36639.75
904.823	36535.75
905.06	36185.75
905.297	35834.75
905.534	35593.75
905.771	35450.75
906.008	35188.75
906.245	34935.75
906.481	34660.75
906.718	34646.75
906.955	34491.75
907.191	34324.75
907.428	34193.75
907.664	33949.75
907.901	33826.75
908.137	33679.75
908.374	33668.75
908.61	33543.75
908.846	33164.75
909.083	33035.75
909.319	32900.75
909.555	32810.75
909.791	32482.75
910.027	32259.75
910.263	31955.75
910.499	31867.75
910.735	31612.75
910.971	31284.75
911.207	31048.75
911.443	31002.75
911.678	30750.75
911.914	30694.75
912.15	30720.75
912.385	30477.75
912.621	30621.75
912.857	30538.75
913.092	30508.75
913.328	30423.75
913.563	30473.75
913.798	30214.75
914.034	30325.75
914.269	30314.75
914.504	30211.75
914.739	29878.75
914.975	29778.75
915.21	29592.75
915.445	29367.75
915.68	29130.75
915.915	28930.75
916.15	28568.75
916.384	28335.75
916.619	27918.75
916.854	27881.75
917.089	27639.75
917.324	27458.75
917.558	27230.75
917.793	27179.75
918.028	27020.75
918.262	26951.75
918.497	26910.75
918.731	26969.75
918.965	26878.75
919.2	26596.75
919.434	26702.75
919.668	26716.75
919.903	26526.75
920.137	26514.75
920.371	26281.75
920.605	26136.75
920.839	26039.75
921.073	25854.75
921.307	25574.75
921.541	25583.75
921.775	25360.75
922.009	25175.75
922.243	25168.75
922.476	25092.75
922.71	25018.75
922.944	25058.75
923.177	25086.75
923.411	25008.75
923.644	24856.75
923.878	24754.75
924.111	24756.75
924.345	24656.75
924.578	24521.75
924.811	24503.75
925.045	24291.75
925.278	24142.75
925.511	23903.75
925.744	23719.75
925.977	23519.75
926.21	23434.75
926.443	23231.75
926.676	23017.75
926.909	22823.75
927.142	22600.75
927.375	22551.75
927.608	22366.75
927.841	22246.75
928.073	22248.75
928.306	22145.75
928.539	22093.75
928.771	22087.75
929.004	22029.75
929.236	22002.75
929.469	22037.75
929.701	21959.75
929.933	22108.75
930.166	21937.75
930.398	21873.75
930.63	21984.75
930.862	21925.75
931.094	21751.75
931.327	21582.75
931.559	21494.75
931.791	21314.75
932.023	21208.75
932.255	21123.75
932.486	20806.75
932.718	20728.75
932.95	20604.75
933.182	20457.75
933.413	20407.75
933.645	20346.75
933.877	20127.75
934.108	20140.75
934.34	20012.75
934.571	19958.75
934.803	19855.75
935.034	19737.75
935.265	19743.75
935.497	19651.75
935.728	19488.75
935.959	19454.75
936.19	19426.75
936.422	19373.75
936.653	19282.75
936.884	19202.75
937.115	19059.75
937.346	18927.75
937.577	18730.75
937.807	18678.75
938.038	18560.75
938.269	18641.75
938.5	18611.75
938.73	18484.75
938.961	18412.75
939.192	18395.75
939.422	18361.75
939.653	18335.75
939.883	18277.75
940.114	18241.75
940.344	18191.75
940.574	18097.75
940.805	18078.75
941.035	17923.75
941.265	17782.75
941.495	17624.75
941.726	17643.75
941.956	17432.75
942.186	17354.75
942.416	17179.75
942.646	17107.75
942.876	16890.75
943.105	16803.75
943.335	16621.75
943.565	16537.75
943.795	16330.75
944.024	16274.75
944.254	16229.75
944.484	16081.75
944.713	16059.75
944.943	15985.75
945.172	15811.75
945.402	15802.75
945.631	15775.75
945.86	15587.75
946.09	15707.75
946.319	15649.75
946.548	15660.75
946.777	15654.75
947.006	15552.75
947.235	15590.75
947.465	15424.75
947.694	15306.75
947.922	15262.75
948.151	15127.75
948.38	15028.75
948.609	14909.75
948.838	14833.75
949.067	14606.75
949.295	14611.75
949.524	14556.75
949.752	14297.75
949.981	14337.75
950.21	14272.75
950.438	14165.75
950.666	14046.75
950.895	13948.75
951.123	13949.75
951.351	13890.75
951.58	13726.75
951.808	13608.75
952.036	13566.75
952.264	13513.75
952.492	13452.75
952.72	13335.75
952.948	13331.75
953.176	13267.75
953.404	13182.75
953.632	13040.75
953.86	12974.75
954.088	12805.75
954.315	12703.75
954.543	12683.75
954.771	12575.75
954.998	12553.75
955.226	12472.75
955.453	12431.75
955.681	12359.75
955.908	12304.75
956.135	12315.75
956.363	12234.75
956.59	12277.75
956.817	12239.75
957.045	12155.75
957.272	12141.75
957.499	12048.75
957.726	12038.75
957.953	12035.75
958.18	11999.75
958.407	11879.75
958.634	11783.75
958.861	11700.75
959.087	11621.75
959.314	11589.75
959.541	11507.75
959.767	11363.75
959.994	11331.75
960.221	11257.75
960.447	11181.75
960.674	11050.75
960.9	10933.75
961.127	10885.75
961.353	10883.75
961.579	10793.75
961.806	10760.75
962.032	10684.75
962.258	10476.75
962.484	10502.75
962.71	10619.75
962.936	10448.75
963.162	10440.75
963.388	10416.75
963.614	10320.75
963.84	10378.75
964.066	10337.75
964.292	10302.75
964.518	10249.75
964.743	10189.75
964.969	10123.75
965.195	10076.75
965.42	10045.75
965.646	10002.75
965.871	9940.75
966.097	9897.75
966.322	9878.75
966.547	9911.75
966.773	9776.75
966.998	9731.75
967.223	9653.75
967.448	9615.75
967.674	9601.75
967.899	9520.75
968.124	9402.75
968.349	9418.75
968.574	9381.75
968.799	9352.75
969.024	9309.75
969.248	9232.75
969.473	9128.75
969.698	9039.75
969.923	9011.75
970.147	9000.75
970.372	8929.75
970.596	8912.75
970.821	8821.75
971.046	8754.75
971.27	8745.75
971.494	8642.75
971.719	8556.75
971.943	8539.75
972.167	8462.75
972.392	8422.75
972.616	8349.75
972.84	8320.75
973.064	8258.75
973.288	8273.75
973.512	8163.75
973.736	8179.75
973.96	8209.75
974.184	8161.75
974.408	8124.75
974.631	8079.75
974.855	8087.75
975.079	7948.75
975.303	7933.75
975.526	7946.75
975.75	7923.75
975.973	7858.75
976.197	7859.75
976.42	7800.75
976.644	7696.75
976.867	7697.75
977.09	7632.75
977.313	7598.75
977.537	7610.75
977.76	7429.75
977.983	7415.75
978.206	7385.75
978.429	7334.75
978.652	7277.75
978.875	7179.75
979.098	7134.75
979.321	7153.75
979.544	7122.75
979.767	7055.75
979.989	6983.75
980.212	7015.75
980.435	6954.75
980.657	6805.75
980.88	6880.75
981.102	6816.75
981.325	6830.75
981.547	6722.75
981.77	6764.75
981.992	6722.75
982.214	6660.75
982.437	6628.75
982.659	6608.75
982.881	6610.75
983.103	6575.75
983.325	6492.75
983.547	6504.75
983.769	6442.75
983.991	6464.75
984.213	6349.75
984.435	6399.75
984.657	6345.75
984.879	6329.75
985.1	6294.75
985.322	6297.75
985.544	6197.75
985.765	6184.75
985.987	6122.75
986.208	6093.75
986.43	6066.75
986.651	6055.75
986.873	6018.75
987.094	5985.75
987.315	5956.75
987.536	5898.75
987.758	5867.75
987.979	5794.75
988.2	5820.75
988.421	5753.75
988.642	5706.75
988.863	5668.75
989.084	5655.75
989.305	5574.75
989.526	5558.75
989.747	5514.75
989.967	5544.75
990.188	5462.75
990.409	5448.75
990.629	5451.75
990.85	5376.75
991.071	5258.75
991.291	5257.75
991.512	5180.75
991.732	5190.75
991.952	5244.75
992.173	5163.75
992.393	5163.75
992.613	5112.75
992.834	5153.75
993.054	5089.75
993.274	5097.75
993.494	5104.75
993.714	5064.75
993.934	5091.75
994.154	5021.75
994.374	5031.75
994.594	4985.75
994.813	4924.75
995.033	4936.75
995.253	4895.75
995.473	4925.75
995.692	4832.75
995.912	4800.75
996.131	4759.75
996.351	4729.75
996.57	4693.75
996.79	4664.75
997.009	4585.75
997.228	4621.75
997.448	4530.75
997.667	4532.75
997.886	4514.75
998.105	4439.75
998.325	4403.75
998.544	4374.75
998.763	4348.75
998.982	4304.75
999.201	4288.75
999.419	4282.75
999.638	4228.75
999.857	4218.75
1000.076	4186.75
1000.295	4180.75
1000.513	4159.75
1000.732	4108.75
1000.95	4114.75
1001.169	4152.75
1001.388	4118.75
1001.606	4063.75
1001.824	4080.75
1002.043	4020.75
1002.261	3999.75
1002.479	4016.75
1002.698	4025.75
1002.916	3993.75
1003.134	3975.75
1003.352	3947.75
1003.57	3923.75
1003.788	3918.75
1004.006	3880.75
1004.224	3845.75
1004.442	3828.75
1004.66	3844.75
1004.878	3797.75
1005.095	3770.75
1005.313	3778.75
1005.531	3754.75
1005.748	3695.75
1005.966	3816.75
1006.184	3711.75
1006.401	3643.75
1006.618	3635.75
1006.836	3656.75
1007.053	3629.75
1007.271	3633.75
1007.488	3636.75
1007.705	3655.75
1007.922	3580.75
1008.139	3564.75
1008.357	3577.75
1008.574	3611.75
1008.791	3616.75
1009.008	3606.75
1009.225	3605.75
1009.441	3711.75
1009.658	3649.75
1009.875	3674.75
1010.092	3690.75
1010.309	3642.75
1010.525	3569.75
1010.742	3568.75
1010.958	3512.75
1011.175	3498.75
1011.391	3446.75
1011.608	3427.75
1011.824	3386.75
1012.041	3375.75
1012.257	3353.75
1012.473	3326.75
1012.689	3325.75
1012.906	3294.75
1013.122	3267.75
1013.338	3232.75
1013.554	3224.75
1013.77	3241.75
1013.986	3224.75
1014.202	3301.75
1014.418	3300.75
1014.634	3425.75
1014.849	3399.75
1015.065	3435.75
1015.281	3431.75
1015.496	3408.75
1015.712	3362.75
1015.928	3333.75
1016.143	3265.75
1016.359	3243.75
1016.574	3186.75
1016.79	3084.75
1017.005	3041.75
1017.22	2978.75
1017.435	2951.75
1017.651	2904.75
1017.866	2828.75
1018.081	2790.75
1018.296	2757.75
1018.511	2713.75
1018.726	2728.75
1018.941	2659.75
1019.156	2611.75
1019.371	2616.75
1019.586	2605.75
1019.801	2611.75
1020.015	2574.75
1020.23	2563.75
1020.445	2528.75
1020.659	2499.75
1020.874	2509.75
1021.088	2439.75
1021.303	2431.75
1021.517	2386.75
1021.732	2327.75
1021.946	2315.75
1022.16	2314.75
1022.375	2271.75
1022.589	2234.75
1022.803	2229.75
1023.017	2186.75
1023.231	2111.75
1023.445	2123.75
1023.659	2037.75
1023.873	2034.75
1024.087	1947.75
1024.301	1946.75
1024.515	1936.75
1024.729	1883.75
1024.942	1848.75
1025.156	1833.75
1025.37	1800.75
1025.583	1764.75
1025.797	1732.75
1026.01	1706.75
1026.224	1644.75
1026.437	1612.75
1026.651	1586.75
1026.864	1504.75
1027.077	1486.75
1027.291	1457.75
1027.504	1426.75
1027.717	1379.75
1027.93	1336.75
1028.143	1342.75
1028.356	1274.75
1028.569	1195.75
1028.782	1130.75
1028.995	0.75
1029.208	-5.25
1029.421	-2.25
1029.634	-5.25
