Data from QEP037381__326__15-39-46-561.txt Node

Date: Mon Mar 14 15:39:46 EDT 2022
User: dcclab
Spectrometer: QEP03738
Trigger mode: 4
Integration Time (sec): 2.500000E0
Scans to average: 1
Electric dark correction enabled: true
Nonlinearity correction enabled: false
Boxcar width: 0
XAxis mode: Wavelengths
Number of Pixels in Spectrum: 1044
>>>>>Begin Spectral Data<<<<<
783.959	13.25
784.218	0.25
784.476	-6.75
784.734	-4.75
784.992	272.25
785.251	271.25
785.509	258.25
785.767	255.25
786.025	259.25
786.283	264.25
786.541	269.25
786.798	270.25
787.056	270.25
787.314	248.25
787.572	258.25
787.83	239.25
788.087	258.25
788.345	262.25
788.602	258.25
788.86	253.25
789.117	269.25
789.375	263.25
789.632	266.25
789.89	257.25
790.147	277.25
790.404	275.25
790.661	285.25
790.919	298.25
791.176	289.25
791.433	293.25
791.69	295.25
791.947	301.25
792.204	281.25
792.461	322.25
792.718	329.25
792.974	337.25
793.231	333.25
793.488	351.25
793.745	364.25
794.001	378.25
794.258	412.25
794.514	399.25
794.771	436.25
795.027	448.25
795.284	468.25
795.54	503.25
795.797	522.25
796.053	580.25
796.309	622.25
796.565	684.25
796.822	731.25
797.078	841.25
797.334	975.25
797.59	1134.25
797.846	1444.25
798.102	1857.25
798.358	2508.25
798.614	3523.25
798.869	5143.25
799.125	7629.25
799.381	11061.25
799.637	15719.25
799.892	21421.25
800.148	27523.25
800.403	33556.25
800.659	38841.25
800.914	42889.25
801.17	45790.25
801.425	47395.25
801.68	48996.25
801.936	50048.25
802.191	51197.25
802.446	52311.25
802.701	53540.25
802.957	54499.25
803.212	55821.25
803.467	56768.25
803.722	58065.25
803.977	59164.25
804.232	60111.25
804.486	61382.25
804.741	62537.25
804.996	63876.25
805.251	65061.25
805.505	65996.25
805.76	67171.25
806.015	67958.25
806.269	68964.25
806.524	70041.25
806.778	70707.25
807.033	71086.25
807.287	72021.25
807.541	73070.25
807.796	74136.25
808.05	74961.25
808.304	75639.25
808.558	76125.25
808.812	76573.25
809.066	77263.25
809.32	77851.25
809.574	78444.25
809.828	78873.25
810.082	79569.25
810.336	79975.25
810.59	80944.25
810.844	82013.25
811.097	82979.25
811.351	84471.25
811.605	85772.25
811.858	87063.25
812.112	88249.25
812.365	89750.25
812.619	91333.25
812.872	92670.25
813.126	93687.25
813.379	95018.25
813.632	96232.25
813.885	97683.25
814.139	99003.25
814.392	100290.25
814.645	102009.25
814.898	104005.25
815.151	105632.25
815.404	107769.25
815.657	109697.25
815.91	111228.25
816.163	112564.25
816.416	113809.25
816.668	114546.25
816.921	115389.25
817.174	115884.25
817.426	115670.25
817.679	115772.25
817.931	115624.25
818.184	115411.25
818.436	115623.25
818.689	115604.25
818.941	116178.25
819.194	116653.25
819.446	116898.25
819.698	117376.25
819.95	117984.25
820.202	118242.25
820.455	118840.25
820.707	119123.25
820.959	119253.25
821.211	119251.25
821.462	119153.25
821.714	118946.25
821.966	118604.25
822.218	118153.25
822.47	117451.25
822.722	117181.25
822.973	116814.25
823.225	115977.25
823.476	116191.25
823.728	115983.25
823.979	116001.25
824.231	116386.25
824.482	116222.25
824.734	116519.25
824.985	116320.25
825.236	116407.25
825.487	116070.25
825.739	115549.25
825.99	115364.25
826.241	114823.25
826.492	114195.25
826.743	113457.25
826.994	113225.25
827.245	112860.25
827.496	112624.25
827.747	112541.25
827.997	112564.25
828.248	112349.25
828.499	112543.25
828.75	112511.25
829	112692.25
829.251	112769.25
829.501	112382.25
829.752	111790.25
830.002	111336.25
830.253	110688.25
830.503	110107.25
830.753	109365.25
831.004	108807.25
831.254	108272.25
831.504	108054.25
831.754	107832.25
832.004	107682.25
832.254	107633.25
832.504	107789.25
832.754	107838.25
833.004	107560.25
833.254	107761.25
833.504	107358.25
833.754	106961.25
834.003	106924.25
834.253	106335.25
834.503	105683.25
834.752	105214.25
835.002	104639.25
835.252	104147.25
835.501	103543.25
835.75	103212.25
836	103122.25
836.249	103054.25
836.499	102888.25
836.748	102901.25
836.997	102781.25
837.246	102877.25
837.495	103202.25
837.744	103629.25
837.993	104152.25
838.242	104169.25
838.491	104003.25
838.74	103196.25
838.989	102089.25
839.238	101121.25
839.487	100395.25
839.736	99764.25
839.984	99042.25
840.233	98688.25
840.482	98253.25
840.73	98071.25
840.979	97845.25
841.227	97364.25
841.476	97058.25
841.724	96758.25
841.972	96343.25
842.221	96035.25
842.469	95963.25
842.717	95603.25
842.965	95111.25
843.213	94998.25
843.461	94604.25
843.71	94106.25
843.958	93869.25
844.205	93489.25
844.453	93382.25
844.701	93218.25
844.949	93157.25
845.197	92993.25
845.445	93263.25
845.692	93363.25
845.94	93219.25
846.188	93253.25
846.435	93306.25
846.683	92873.25
846.93	92570.25
847.178	92371.25
847.425	91446.25
847.672	90658.25
847.92	89952.25
848.167	88943.25
848.414	88265.25
848.661	87741.25
848.908	87290.25
849.155	86900.25
849.402	87058.25
849.649	86890.25
849.896	87282.25
850.143	87537.25
850.39	87979.25
850.637	88025.25
850.884	87418.25
851.131	87706.25
851.377	87395.25
851.624	87317.25
851.87	86929.25
852.117	86190.25
852.364	85888.25
852.61	85621.25
852.856	85360.25
853.103	84860.25
853.349	84690.25
853.595	84095.25
853.842	83572.25
854.088	83687.25
854.334	83867.25
854.58	83532.25
854.826	83081.25
855.072	82343.25
855.318	81830.25
855.564	81152.25
855.81	80473.25
856.056	79954.25
856.302	79132.25
856.548	78739.25
856.793	78114.25
857.039	77831.25
857.285	77691.25
857.53	77627.25
857.776	77616.25
858.021	77908.25
858.267	78127.25
858.512	78238.25
858.758	78459.25
859.003	78484.25
859.248	78586.25
859.493	78433.25
859.739	78063.25
859.984	77839.25
860.229	77400.25
860.474	77047.25
860.719	76952.25
860.964	75999.25
861.209	75467.25
861.454	75036.25
861.699	74558.25
861.943	74356.25
862.188	73955.25
862.433	73831.25
862.678	73331.25
862.922	73341.25
863.167	73154.25
863.411	72991.25
863.656	72711.25
863.9	72492.25
864.145	72065.25
864.389	71652.25
864.634	71362.25
864.878	71250.25
865.122	70877.25
865.366	70952.25
865.61	70695.25
865.855	70581.25
866.099	70518.25
866.343	70358.25
866.587	70278.25
866.831	70126.25
867.074	70047.25
867.318	69930.25
867.562	70083.25
867.806	69996.25
868.05	69821.25
868.293	69667.25
868.537	69412.25
868.78	69122.25
869.024	68825.25
869.267	68030.25
869.511	67523.25
869.754	67220.25
869.998	66676.25
870.241	65851.25
870.484	65460.25
870.728	65034.25
870.971	64601.25
871.214	64630.25
871.457	64239.25
871.7	64345.25
871.943	64278.25
872.186	64347.25
872.429	64336.25
872.672	64497.25
872.915	64143.25
873.158	64249.25
873.4	64133.25
873.643	63711.25
873.886	63473.25
874.128	63388.25
874.371	63366.25
874.613	63246.25
874.856	62985.25
875.098	62734.25
875.341	62570.25
875.583	62450.25
875.825	62078.25
876.068	61782.25
876.31	61509.25
876.552	60938.25
876.794	60512.25
877.036	59851.25
877.278	59445.25
877.52	59225.25
877.762	59117.25
878.004	58708.25
878.246	58793.25
878.488	58771.25
878.73	58453.25
878.972	58547.25
879.213	58570.25
879.455	58435.25
879.697	58117.25
879.938	58143.25
880.18	57854.25
880.421	57609.25
880.663	57495.25
880.904	57522.25
881.145	57699.25
881.387	57566.25
881.628	57561.25
881.869	57346.25
882.11	57029.25
882.352	56863.25
882.593	56645.25
882.834	56395.25
883.075	56283.25
883.316	56437.25
883.557	56010.25
883.797	55907.25
884.038	55248.25
884.279	54659.25
884.52	54079.25
884.761	53501.25
885.001	53266.25
885.242	52846.25
885.482	52535.25
885.723	52248.25
885.963	52021.25
886.204	51832.25
886.444	51489.25
886.685	51442.25
886.925	50984.25
887.165	50992.25
887.405	50518.25
887.646	50341.25
887.886	50413.25
888.126	50264.25
888.366	50249.25
888.606	50311.25
888.846	50255.25
889.086	50557.25
889.326	50577.25
889.565	50483.25
889.805	50347.25
890.045	50239.25
890.285	50119.25
890.524	50087.25
890.764	49782.25
891.003	49444.25
891.243	48846.25
891.482	48449.25
891.722	47925.25
891.961	47623.25
892.201	47544.25
892.44	47220.25
892.679	46909.25
892.918	46809.25
893.158	46642.25
893.397	46629.25
893.636	46445.25
893.875	46222.25
894.114	46083.25
894.353	46002.25
894.592	45939.25
894.831	45557.25
895.069	45222.25
895.308	44923.25
895.547	44622.25
895.786	44342.25
896.024	44604.25
896.263	44306.25
896.501	44131.25
896.74	44122.25
896.978	43958.25
897.217	43944.25
897.455	43774.25
897.694	43752.25
897.932	43513.25
898.17	43345.25
898.408	43341.25
898.646	43212.25
898.885	42832.25
899.123	42700.25
899.361	42418.25
899.599	42154.25
899.837	41854.25
900.075	41655.25
900.312	41425.25
900.55	40958.25
900.788	40710.25
901.026	40172.25
901.263	39953.25
901.501	39771.25
901.739	39497.25
901.976	39271.25
902.214	39029.25
902.451	39057.25
902.689	38927.25
902.926	38895.25
903.163	38758.25
903.401	38910.25
903.638	38803.25
903.875	38735.25
904.112	38598.25
904.349	38659.25
904.586	38413.25
904.823	38256.25
905.06	38145.25
905.297	37743.25
905.534	37358.25
905.771	37289.25
906.008	36990.25
906.245	36832.25
906.481	36621.25
906.718	36458.25
906.955	36234.25
907.191	36152.25
907.428	35952.25
907.664	35745.25
907.901	35692.25
908.137	35438.25
908.374	35295.25
908.61	35127.25
908.846	35000.25
909.083	34881.25
909.319	34710.25
909.555	34361.25
909.791	34140.25
910.027	33760.25
910.263	33580.25
910.499	33397.25
910.735	33058.25
910.971	32859.25
911.207	32718.25
911.443	32382.25
911.678	32383.25
911.914	32148.25
912.15	32211.25
912.385	32033.25
912.621	32037.25
912.857	32053.25
913.092	32007.25
913.328	31886.25
913.563	31904.25
913.798	31767.25
914.034	31793.25
914.269	31662.25
914.504	31538.25
914.739	31478.25
914.975	31324.25
915.21	31070.25
915.445	30766.25
915.68	30430.25
915.915	30291.25
916.15	29955.25
916.384	29528.25
916.619	29138.25
916.854	29019.25
917.089	28818.25
917.324	28748.25
917.558	28594.25
917.793	28439.25
918.028	28304.25
918.262	28264.25
918.497	28177.25
918.731	28078.25
918.965	27969.25
919.2	27983.25
919.434	27937.25
919.668	27859.25
919.903	27724.25
920.137	27781.25
920.371	27461.25
920.605	27318.25
920.839	27151.25
921.073	26937.25
921.307	26813.25
921.541	26680.25
921.775	26472.25
922.009	26371.25
922.243	26219.25
922.476	26269.25
922.71	26297.25
922.944	26213.25
923.177	26093.25
923.411	26197.25
923.644	25940.25
923.878	25839.25
924.111	25814.25
924.345	25620.25
924.578	25374.25
924.811	25380.25
925.045	25257.25
925.278	25088.25
925.511	24854.25
925.744	24805.25
925.977	24556.25
926.21	24410.25
926.443	24097.25
926.676	23957.25
926.909	23829.25
927.142	23551.25
927.375	23519.25
927.608	23266.25
927.841	23109.25
928.073	23135.25
928.306	23142.25
928.539	22986.25
928.771	23031.25
929.004	22889.25
929.236	22930.25
929.469	23021.25
929.701	22913.25
929.933	22855.25
930.166	22835.25
930.398	22789.25
930.63	22904.25
930.862	22659.25
931.094	22562.25
931.327	22419.25
931.559	22168.25
931.791	22111.25
932.023	22061.25
932.255	21904.25
932.486	21679.25
932.718	21532.25
932.95	21416.25
933.182	21175.25
933.413	21209.25
933.645	21070.25
933.877	21034.25
934.108	20962.25
934.34	20742.25
934.571	20732.25
934.803	20605.25
935.034	20649.25
935.265	20579.25
935.497	20325.25
935.728	20306.25
935.959	20157.25
936.19	20122.25
936.422	19969.25
936.653	19844.25
936.884	19686.25
937.115	19669.25
937.346	19548.25
937.577	19325.25
937.807	19254.25
938.038	19264.25
938.269	19067.25
938.5	19061.25
938.73	19040.25
938.961	19007.25
939.192	19000.25
939.422	19019.25
939.653	18915.25
939.883	18878.25
940.114	18929.25
940.344	18782.25
940.574	18756.25
940.805	18654.25
941.035	18524.25
941.265	18408.25
941.495	18250.25
941.726	17995.25
941.956	17989.25
942.186	17886.25
942.416	17703.25
942.646	17449.25
942.876	17337.25
943.105	17309.25
943.335	17148.25
943.565	16950.25
943.795	16778.25
944.024	16690.25
944.254	16665.25
944.484	16439.25
944.713	16440.25
944.943	16374.25
945.172	16290.25
945.402	16224.25
945.631	16163.25
945.86	16146.25
946.09	16169.25
946.319	16058.25
946.548	16086.25
946.777	15972.25
947.006	15976.25
947.235	15878.25
947.465	15780.25
947.694	15626.25
947.922	15617.25
948.151	15461.25
948.38	15361.25
948.609	15210.25
948.838	15053.25
949.067	15056.25
949.295	15013.25
949.524	14859.25
949.752	14722.25
949.981	14581.25
950.21	14571.25
950.438	14463.25
950.666	14408.25
950.895	14227.25
951.123	14151.25
951.351	13981.25
951.58	14025.25
951.808	13900.25
952.036	13897.25
952.264	13842.25
952.492	13760.25
952.72	13606.25
952.948	13573.25
953.176	13535.25
953.404	13322.25
953.632	13260.25
953.86	13146.25
954.088	12997.25
954.315	12953.25
954.543	12834.25
954.771	12742.25
954.998	12685.25
955.226	12655.25
955.453	12618.25
955.681	12582.25
955.908	12572.25
956.135	12443.25
956.363	12421.25
956.59	12506.25
956.817	12392.25
957.045	12325.25
957.272	12263.25
957.499	12237.25
957.726	12147.25
957.953	12099.25
958.18	12047.25
958.407	11978.25
958.634	11976.25
958.861	11934.25
959.087	11818.25
959.314	11769.25
959.541	11625.25
959.767	11512.25
959.994	11490.25
960.221	11389.25
960.447	11208.25
960.674	11159.25
960.9	11096.25
961.127	10989.25
961.353	10954.25
961.579	10886.25
961.806	10823.25
962.032	10722.25
962.258	10693.25
962.484	10662.25
962.71	10634.25
962.936	10588.25
963.162	10600.25
963.388	10499.25
963.614	10426.25
963.84	10536.25
964.066	10484.25
964.292	10376.25
964.518	10379.25
964.743	10303.25
964.969	10249.25
965.195	10257.25
965.42	10219.25
965.646	10109.25
965.871	10051.25
966.097	9977.25
966.322	9982.25
966.547	9899.25
966.773	9854.25
966.998	9783.25
967.223	9743.25
967.448	9689.25
967.674	9695.25
967.899	9597.25
968.124	9500.25
968.349	9494.25
968.574	9376.25
968.799	9328.25
969.024	9283.25
969.248	9295.25
969.473	9162.25
969.698	9149.25
969.923	9047.25
970.147	9058.25
970.372	8933.25
970.596	8882.25
970.821	8780.25
971.046	8810.25
971.27	8725.25
971.494	8721.25
971.719	8622.25
971.943	8586.25
972.167	8547.25
972.392	8520.25
972.616	8447.25
972.84	8393.25
973.064	8297.25
973.288	8300.25
973.512	8260.25
973.736	8233.25
973.96	8192.25
974.184	8170.25
974.408	8193.25
974.631	8143.25
974.855	8116.25
975.079	8038.25
975.303	8006.25
975.526	7978.25
975.75	8012.25
975.973	7925.25
976.197	7878.25
976.42	7887.25
976.644	7797.25
976.867	7721.25
977.09	7738.25
977.313	7686.25
977.537	7570.25
977.76	7504.25
977.983	7491.25
978.206	7416.25
978.429	7385.25
978.652	7305.25
978.875	7289.25
979.098	7231.25
979.321	7123.25
979.544	7102.25
979.767	7088.25
979.989	7059.25
980.212	6959.25
980.435	6898.25
980.657	6886.25
980.88	6889.25
981.102	6746.25
981.325	6821.25
981.547	6756.25
981.77	6738.25
981.992	6748.25
982.214	6660.25
982.437	6686.25
982.659	6626.25
982.881	6583.25
983.103	6539.25
983.325	6526.25
983.547	6533.25
983.769	6467.25
983.991	6359.25
984.213	6400.25
984.435	6394.25
984.657	6343.25
984.879	6314.25
985.1	6298.25
985.322	6280.25
985.544	6183.25
985.765	6201.25
985.987	6149.25
986.208	6136.25
986.43	6076.25
986.651	6034.25
986.873	6043.25
987.094	5960.25
987.315	5946.25
987.536	5933.25
987.758	5880.25
987.979	5783.25
988.2	5749.25
988.421	5723.25
988.642	5703.25
988.863	5692.25
989.084	5633.25
989.305	5601.25
989.526	5585.25
989.747	5547.25
989.967	5513.25
990.188	5480.25
990.409	5424.25
990.629	5362.25
990.85	5347.25
991.071	5340.25
991.291	5325.25
991.512	5240.25
991.732	5218.25
991.952	5201.25
992.173	5183.25
992.393	5131.25
992.613	5101.25
992.834	5168.25
993.054	5066.25
993.274	5087.25
993.494	5107.25
993.714	5105.25
993.934	5036.25
994.154	4992.25
994.374	4973.25
994.594	4974.25
994.813	4941.25
995.033	4938.25
995.253	4922.25
995.473	4882.25
995.692	4861.25
995.912	4836.25
996.131	4820.25
996.351	4739.25
996.57	4684.25
996.79	4680.25
997.009	4652.25
997.228	4595.25
997.448	4559.25
997.667	4484.25
997.886	4462.25
998.105	4423.25
998.325	4425.25
998.544	4373.25
998.763	4382.25
998.982	4277.25
999.201	4290.25
999.419	4219.25
999.638	4231.25
999.857	4216.25
1000.076	4207.25
1000.295	4131.25
1000.513	4190.25
1000.732	4144.25
1000.95	4117.25
1001.169	4106.25
1001.388	4054.25
1001.606	4055.25
1001.824	4071.25
1002.043	4041.25
1002.261	4015.25
1002.479	4000.25
1002.698	3993.25
1002.916	3943.25
1003.134	3981.25
1003.352	3929.25
1003.57	3880.25
1003.788	3905.25
1004.006	3870.25
1004.224	3868.25
1004.442	3862.25
1004.66	3794.25
1004.878	3815.25
1005.095	3776.25
1005.313	3757.25
1005.531	3708.25
1005.748	3726.25
1005.966	3804.25
1006.184	3702.25
1006.401	3707.25
1006.618	3649.25
1006.836	3653.25
1007.053	3661.25
1007.271	3620.25
1007.488	3649.25
1007.705	3590.25
1007.922	3590.25
1008.139	3598.25
1008.357	3630.25
1008.574	3641.25
1008.791	3604.25
1009.008	3657.25
1009.225	3647.25
1009.441	3640.25
1009.658	3649.25
1009.875	3684.25
1010.092	3668.25
1010.309	3616.25
1010.525	3577.25
1010.742	3542.25
1010.958	3522.25
1011.175	3528.25
1011.391	3460.25
1011.608	3456.25
1011.824	3371.25
1012.041	3355.25
1012.257	3337.25
1012.473	3322.25
1012.689	3290.25
1012.906	3286.25
1013.122	3254.25
1013.338	3253.25
1013.554	3232.25
1013.77	3235.25
1013.986	3246.25
1014.202	3268.25
1014.418	3282.25
1014.634	3398.25
1014.849	3373.25
1015.065	3412.25
1015.281	3443.25
1015.496	3437.25
1015.712	3391.25
1015.928	3385.25
1016.143	3281.25
1016.359	3191.25
1016.574	3155.25
1016.79	3115.25
1017.005	3073.25
1017.22	3005.25
1017.435	2983.25
1017.651	2908.25
1017.866	2849.25
1018.081	2750.25
1018.296	2747.25
1018.511	2713.25
1018.726	2729.25
1018.941	2667.25
1019.156	2631.25
1019.371	2607.25
1019.586	2656.25
1019.801	2599.25
1020.015	2591.25
1020.23	2559.25
1020.445	2565.25
1020.659	2492.25
1020.874	2514.25
1021.088	2458.25
1021.303	2389.25
1021.517	2389.25
1021.732	2372.25
1021.946	2341.25
1022.16	2342.25
1022.375	2293.25
1022.589	2241.25
1022.803	2220.25
1023.017	2199.25
1023.231	2135.25
1023.445	2101.25
1023.659	2054.25
1023.873	2044.25
1024.087	1945.25
1024.301	1943.25
1024.515	1923.25
1024.729	1912.25
1024.942	1835.25
1025.156	1839.25
1025.37	1804.25
1025.583	1785.25
1025.797	1727.25
1026.01	1707.25
1026.224	1659.25
1026.437	1627.25
1026.651	1567.25
1026.864	1517.25
1027.077	1522.25
1027.291	1461.25
1027.504	1416.25
1027.717	1418.25
1027.93	1345.25
1028.143	1328.25
1028.356	1247.25
1028.569	1187.25
1028.782	1120.25
1028.995	-0.75
1029.208	-0.75
1029.421	-0.75
1029.634	0.25
