Data from QEP037381__345__15-40-41-562.txt Node

Date: Mon Mar 14 15:40:41 EDT 2022
User: dcclab
Spectrometer: QEP03738
Trigger mode: 4
Integration Time (sec): 2.500000E0
Scans to average: 1
Electric dark correction enabled: true
Nonlinearity correction enabled: false
Boxcar width: 0
XAxis mode: Wavelengths
Number of Pixels in Spectrum: 1044
>>>>>Begin Spectral Data<<<<<
783.959	12.12
784.218	0.12
784.476	1.12
784.734	-3.88
784.992	268.12
785.251	244.12
785.509	244.12
785.767	236.12
786.025	249.12
786.283	246.12
786.541	255.12
786.798	255.12
787.056	248.12
787.314	235.12
787.572	259.12
787.83	229.12
788.087	245.12
788.345	250.12
788.602	249.12
788.86	248.12
789.117	238.12
789.375	243.12
789.632	246.12
789.89	249.12
790.147	272.12
790.404	264.12
790.661	272.12
790.919	283.12
791.176	276.12
791.433	275.12
791.69	293.12
791.947	273.12
792.204	273.12
792.461	302.12
792.718	305.12
792.974	309.12
793.231	304.12
793.488	343.12
793.745	349.12
794.001	348.12
794.258	382.12
794.514	385.12
794.771	393.12
795.027	417.12
795.284	421.12
795.54	469.12
795.797	489.12
796.053	552.12
796.309	555.12
796.565	612.12
796.822	680.12
797.078	758.12
797.334	910.12
797.59	1061.12
797.846	1310.12
798.102	1727.12
798.358	2299.12
798.614	3325.12
798.869	4747.12
799.125	7022.12
799.381	10219.12
799.637	14587.12
799.892	19721.12
800.148	25446.12
800.403	30938.12
800.659	35710.12
800.914	39441.12
801.17	41915.12
801.425	43683.12
801.68	44841.12
801.936	45965.12
802.191	46882.12
802.446	47859.12
802.701	49070.12
802.957	50074.12
803.212	51107.12
803.467	52096.12
803.722	53123.12
803.977	54124.12
804.232	55187.12
804.486	56375.12
804.741	57329.12
804.996	58481.12
805.251	59584.12
805.505	60596.12
805.76	61552.12
806.015	62497.12
806.269	63359.12
806.524	64241.12
806.778	64855.12
807.033	65175.12
807.287	66001.12
807.541	66921.12
807.796	68154.12
808.05	68968.12
808.304	69314.12
808.558	69869.12
808.812	70320.12
809.066	71035.12
809.32	71590.12
809.574	72222.12
809.828	72492.12
810.082	73024.12
810.336	73621.12
810.59	74236.12
810.844	75394.12
811.097	76332.12
811.351	77527.12
811.605	78785.12
811.858	79996.12
812.112	81429.12
812.365	82681.12
812.619	84037.12
812.872	85260.12
813.126	86278.12
813.379	87352.12
813.632	88689.12
813.885	89718.12
814.139	91302.12
814.392	92423.12
814.645	93849.12
814.898	95638.12
815.151	97186.12
815.404	99146.12
815.657	100923.12
815.91	102527.12
816.163	103850.12
816.416	104736.12
816.668	105601.12
816.921	106292.12
817.174	106764.12
817.426	106789.12
817.679	106639.12
817.931	106627.12
818.184	106550.12
818.436	106622.12
818.689	106757.12
818.941	107113.12
819.194	107495.12
819.446	107885.12
819.698	108264.12
819.95	108630.12
820.202	109197.12
820.455	109404.12
820.707	109945.12
820.959	109916.12
821.211	109991.12
821.462	110044.12
821.714	109968.12
821.966	109614.12
822.218	108986.12
822.47	108463.12
822.722	108011.12
822.973	107630.12
823.225	107257.12
823.476	107286.12
823.728	107225.12
823.979	107378.12
824.231	107463.12
824.482	107712.12
824.734	107694.12
824.985	107652.12
825.236	107601.12
825.487	107292.12
825.739	106619.12
825.99	106420.12
826.241	106181.12
826.492	105698.12
826.743	105194.12
826.994	104512.12
827.245	104433.12
827.496	104064.12
827.747	103979.12
827.997	103951.12
828.248	103921.12
828.499	104259.12
828.75	104109.12
829	104236.12
829.251	104186.12
829.501	104152.12
829.752	103412.12
830.002	103037.12
830.253	102489.12
830.503	102075.12
830.753	101213.12
831.004	100714.12
831.254	100126.12
831.504	100050.12
831.754	99707.12
832.004	99834.12
832.254	99854.12
832.504	99895.12
832.754	99804.12
833.004	99835.12
833.254	99806.12
833.504	99662.12
833.754	99095.12
834.003	98694.12
834.253	98721.12
834.503	98010.12
834.752	97504.12
835.002	96958.12
835.252	96434.12
835.501	96115.12
835.75	95690.12
836	95479.12
836.249	95596.12
836.499	95634.12
836.748	95475.12
836.997	95560.12
837.246	95615.12
837.495	95909.12
837.744	96501.12
837.993	96984.12
838.242	97190.12
838.491	97088.12
838.74	95943.12
838.989	94724.12
839.238	94039.12
839.487	93241.12
839.736	92867.12
839.984	92131.12
840.233	91993.12
840.482	91337.12
840.73	91205.12
840.979	90778.12
841.227	90598.12
841.476	90116.12
841.724	90010.12
841.972	89613.12
842.221	89475.12
842.469	89095.12
842.717	88846.12
842.965	88445.12
843.213	88248.12
843.461	88156.12
843.71	87634.12
843.958	87530.12
844.205	87013.12
844.453	86906.12
844.701	86509.12
844.949	86787.12
845.197	86652.12
845.445	86754.12
845.692	86975.12
845.94	86988.12
846.188	87029.12
846.435	86696.12
846.683	86699.12
846.93	86090.12
847.178	85761.12
847.425	85116.12
847.672	84325.12
847.92	83925.12
848.167	82923.12
848.414	82420.12
848.661	81586.12
848.908	81312.12
849.155	81101.12
849.402	80848.12
849.649	81178.12
849.896	81486.12
850.143	81697.12
850.39	82008.12
850.637	82026.12
850.884	81715.12
851.131	81780.12
851.377	81498.12
851.624	81709.12
851.87	80914.12
852.117	80491.12
852.364	80072.12
852.61	79820.12
852.856	79695.12
853.103	79264.12
853.349	78965.12
853.595	78699.12
853.842	78228.12
854.088	77960.12
854.334	78206.12
854.58	77903.12
854.826	77563.12
855.072	77105.12
855.318	76597.12
855.564	75762.12
855.81	75200.12
856.056	74429.12
856.302	73834.12
856.548	73653.12
856.793	73244.12
857.039	72777.12
857.285	72547.12
857.53	72695.12
857.776	72580.12
858.021	72978.12
858.267	73158.12
858.512	73237.12
858.758	73377.12
859.003	73339.12
859.248	73482.12
859.493	73354.12
859.739	72978.12
859.984	72686.12
860.229	72393.12
860.474	71871.12
860.719	71576.12
860.964	71121.12
861.209	70629.12
861.454	70215.12
861.699	69792.12
861.943	69314.12
862.188	69279.12
862.433	68861.12
862.678	68755.12
862.922	68672.12
863.167	68236.12
863.411	68292.12
863.656	67745.12
863.9	67937.12
864.145	67625.12
864.389	67224.12
864.634	66831.12
864.878	66491.12
865.122	66576.12
865.366	66417.12
865.61	66189.12
865.855	66160.12
866.099	66003.12
866.343	65899.12
866.587	65551.12
866.831	65581.12
867.074	65596.12
867.318	65558.12
867.562	65451.12
867.806	65422.12
868.05	65301.12
868.293	65092.12
868.537	65025.12
868.78	64838.12
869.024	64420.12
869.267	63865.12
869.511	63432.12
869.754	62955.12
869.998	62480.12
870.241	61834.12
870.484	61359.12
870.728	61069.12
870.971	60570.12
871.214	60415.12
871.457	60147.12
871.7	60173.12
871.943	60157.12
872.186	60285.12
872.429	60330.12
872.672	60210.12
872.915	60183.12
873.158	60147.12
873.4	59965.12
873.643	59891.12
873.886	59416.12
874.128	59471.12
874.371	59458.12
874.613	59326.12
874.856	59082.12
875.098	58909.12
875.341	58736.12
875.583	58541.12
875.825	58190.12
876.068	58023.12
876.31	57519.12
876.552	57423.12
876.794	56692.12
877.036	56293.12
877.278	55945.12
877.52	55631.12
877.762	55284.12
878.004	55180.12
878.246	54987.12
878.488	55037.12
878.73	54978.12
878.972	54867.12
879.213	54799.12
879.455	54892.12
879.697	54688.12
879.938	54604.12
880.18	54331.12
880.421	54125.12
880.663	54044.12
880.904	54185.12
881.145	54103.12
881.387	54187.12
881.628	54022.12
881.869	53811.12
882.11	53646.12
882.352	53461.12
882.593	53321.12
882.834	53154.12
883.075	52988.12
883.316	53031.12
883.557	52623.12
883.797	52313.12
884.038	51999.12
884.279	51427.12
884.52	50874.12
884.761	50417.12
885.001	49988.12
885.242	49627.12
885.482	49280.12
885.723	49067.12
885.963	48941.12
886.204	48689.12
886.444	48571.12
886.685	48363.12
886.925	47966.12
887.165	47703.12
887.405	47639.12
887.646	47272.12
887.886	47265.12
888.126	47261.12
888.366	47277.12
888.606	47296.12
888.846	47619.12
889.086	47612.12
889.326	47520.12
889.565	47476.12
889.805	47423.12
890.045	47188.12
890.285	47054.12
890.524	47047.12
890.764	46839.12
891.003	46642.12
891.243	46022.12
891.482	45668.12
891.722	45081.12
891.961	44872.12
892.201	44706.12
892.44	44402.12
892.679	44061.12
892.918	44038.12
893.158	44061.12
893.397	43788.12
893.636	43648.12
893.875	43608.12
894.114	43285.12
894.353	43101.12
894.592	43086.12
894.831	42786.12
895.069	42524.12
895.308	42207.12
895.547	42150.12
895.786	41698.12
896.024	41715.12
896.263	41711.12
896.501	41538.12
896.74	41546.12
896.978	41308.12
897.217	41495.12
897.455	41341.12
897.694	41132.12
897.932	40885.12
898.17	40896.12
898.408	40815.12
898.646	40569.12
898.885	40281.12
899.123	40156.12
899.361	39886.12
899.599	39777.12
899.837	39588.12
900.075	39264.12
900.312	39033.12
900.55	38662.12
900.788	38317.12
901.026	37829.12
901.263	37728.12
901.501	37378.12
901.739	37182.12
901.976	37045.12
902.214	36794.12
902.451	36697.12
902.689	36648.12
902.926	36463.12
903.163	36577.12
903.401	36619.12
903.638	36530.12
903.875	36472.12
904.112	36253.12
904.349	36431.12
904.586	36111.12
904.823	36114.12
905.06	35890.12
905.297	35644.12
905.534	35301.12
905.771	35049.12
906.008	34784.12
906.245	34645.12
906.481	34514.12
906.718	34304.12
906.955	34118.12
907.191	34044.12
907.428	33775.12
907.664	33618.12
907.901	33497.12
908.137	33434.12
908.374	33216.12
908.61	33158.12
908.846	33058.12
909.083	32823.12
909.319	32656.12
909.555	32387.12
909.791	32105.12
910.027	31912.12
910.263	31726.12
910.499	31439.12
910.735	31218.12
910.971	30959.12
911.207	30876.12
911.443	30578.12
911.678	30422.12
911.914	30287.12
912.15	30379.12
912.385	30299.12
912.621	30317.12
912.857	30299.12
913.092	30145.12
913.328	30102.12
913.563	29975.12
913.798	30056.12
914.034	30146.12
914.269	29949.12
914.504	29864.12
914.739	29754.12
914.975	29516.12
915.21	29260.12
915.445	29060.12
915.68	28766.12
915.915	28448.12
916.15	28188.12
916.384	27886.12
916.619	27583.12
916.854	27481.12
917.089	27337.12
917.324	27136.12
917.558	26923.12
917.793	26839.12
918.028	26507.12
918.262	26559.12
918.497	26577.12
918.731	26608.12
918.965	26491.12
919.2	26396.12
919.434	26392.12
919.668	26384.12
919.903	26216.12
920.137	26140.12
920.371	25977.12
920.605	25806.12
920.839	25731.12
921.073	25410.12
921.307	25318.12
921.541	25127.12
921.775	25033.12
922.009	24893.12
922.243	24725.12
922.476	24731.12
922.71	24698.12
922.944	24812.12
923.177	24630.12
923.411	24603.12
923.644	24525.12
923.878	24377.12
924.111	24423.12
924.345	24320.12
924.578	24132.12
924.811	23877.12
925.045	23894.12
925.278	23739.12
925.511	23536.12
925.744	23363.12
925.977	23120.12
926.21	22996.12
926.443	22958.12
926.676	22570.12
926.909	22516.12
927.142	22301.12
927.375	22166.12
927.608	21966.12
927.841	21969.12
928.073	21853.12
928.306	21734.12
928.539	21624.12
928.771	21723.12
929.004	21712.12
929.236	21736.12
929.469	21676.12
929.701	21788.12
929.933	21643.12
930.166	21614.12
930.398	21545.12
930.63	21594.12
930.862	21401.12
931.094	21425.12
931.327	21236.12
931.559	21095.12
931.791	20987.12
932.023	20927.12
932.255	20713.12
932.486	20498.12
932.718	20387.12
932.95	20218.12
933.182	20181.12
933.413	20016.12
933.645	19881.12
933.877	19845.12
934.108	19841.12
934.34	19599.12
934.571	19531.12
934.803	19547.12
935.034	19415.12
935.265	19314.12
935.497	19274.12
935.728	19140.12
935.959	19108.12
936.19	18939.12
936.422	18900.12
936.653	18867.12
936.884	18718.12
937.115	18539.12
937.346	18504.12
937.577	18386.12
937.807	18242.12
938.038	18235.12
938.269	18144.12
938.5	18079.12
938.73	18095.12
938.961	17988.12
939.192	18055.12
939.422	17927.12
939.653	17856.12
939.883	17897.12
940.114	17891.12
940.344	17717.12
940.574	17786.12
940.805	17656.12
941.035	17454.12
941.265	17371.12
941.495	17291.12
941.726	17123.12
941.956	17017.12
942.186	16931.12
942.416	16780.12
942.646	16673.12
942.876	16491.12
943.105	16448.12
943.335	16174.12
943.565	16118.12
943.795	15889.12
944.024	15827.12
944.254	15776.12
944.484	15649.12
944.713	15570.12
944.943	15497.12
945.172	15397.12
945.402	15406.12
945.631	15362.12
945.86	15276.12
946.09	15296.12
946.319	15261.12
946.548	15143.12
946.777	15207.12
947.006	15119.12
947.235	15065.12
947.465	15038.12
947.694	14942.12
947.922	14774.12
948.151	14717.12
948.38	14566.12
948.609	14494.12
948.838	14302.12
949.067	14163.12
949.295	14137.12
949.524	14021.12
949.752	13964.12
949.981	13898.12
950.21	13749.12
950.438	13728.12
950.666	13701.12
950.895	13516.12
951.123	13454.12
951.351	13335.12
951.58	13237.12
951.808	13223.12
952.036	13169.12
952.264	13087.12
952.492	13009.12
952.72	12972.12
952.948	12903.12
953.176	12768.12
953.404	12711.12
953.632	12608.12
953.86	12518.12
954.088	12351.12
954.315	12299.12
954.543	12239.12
954.771	12106.12
954.998	12118.12
955.226	12013.12
955.453	11996.12
955.681	11939.12
955.908	11900.12
956.135	11871.12
956.363	11784.12
956.59	11847.12
956.817	11747.12
957.045	11654.12
957.272	11645.12
957.499	11675.12
957.726	11513.12
957.953	11559.12
958.18	11468.12
958.407	11383.12
958.634	11330.12
958.861	11263.12
959.087	11233.12
959.314	11115.12
959.541	11030.12
959.767	10889.12
959.994	10854.12
960.221	10775.12
960.447	10698.12
960.674	10582.12
960.9	10524.12
961.127	10459.12
961.353	10399.12
961.579	10270.12
961.806	10239.12
962.032	10217.12
962.258	10179.12
962.484	10111.12
962.71	10086.12
962.936	10041.12
963.162	10012.12
963.388	10001.12
963.614	10030.12
963.84	9978.12
964.066	9920.12
964.292	9926.12
964.518	9873.12
964.743	9802.12
964.969	9759.12
965.195	9762.12
965.42	9621.12
965.646	9652.12
965.871	9602.12
966.097	9528.12
966.322	9468.12
966.547	9444.12
966.773	9436.12
966.998	9302.12
967.223	9285.12
967.448	9209.12
967.674	9258.12
967.899	9029.12
968.124	9018.12
968.349	9022.12
968.574	8911.12
968.799	8860.12
969.024	8881.12
969.248	8800.12
969.473	8797.12
969.698	8732.12
969.923	8659.12
970.147	8571.12
970.372	8553.12
970.596	8594.12
970.821	8455.12
971.046	8429.12
971.27	8298.12
971.494	8328.12
971.719	8237.12
971.943	8203.12
972.167	8106.12
972.392	8053.12
972.616	8020.12
972.84	7959.12
973.064	7960.12
973.288	7875.12
973.512	7956.12
973.736	7835.12
973.96	7873.12
974.184	7774.12
974.408	7745.12
974.631	7749.12
974.855	7731.12
975.079	7673.12
975.303	7631.12
975.526	7656.12
975.75	7515.12
975.973	7505.12
976.197	7464.12
976.42	7440.12
976.644	7447.12
976.867	7396.12
977.09	7338.12
977.313	7286.12
977.537	7192.12
977.76	7180.12
977.983	7087.12
978.206	7080.12
978.429	7054.12
978.652	6996.12
978.875	6952.12
979.098	6877.12
979.321	6856.12
979.544	6840.12
979.767	6771.12
979.989	6661.12
980.212	6632.12
980.435	6627.12
980.657	6545.12
980.88	6567.12
981.102	6524.12
981.325	6495.12
981.547	6429.12
981.77	6369.12
981.992	6408.12
982.214	6344.12
982.437	6300.12
982.659	6367.12
982.881	6303.12
983.103	6211.12
983.325	6250.12
983.547	6211.12
983.769	6171.12
983.991	6160.12
984.213	6152.12
984.435	6101.12
984.657	6076.12
984.879	6021.12
985.1	6010.12
985.322	5958.12
985.544	5879.12
985.765	5916.12
985.987	5880.12
986.208	5812.12
986.43	5828.12
986.651	5743.12
986.873	5684.12
987.094	5681.12
987.315	5694.12
987.536	5619.12
987.758	5616.12
987.979	5556.12
988.2	5526.12
988.421	5498.12
988.642	5513.12
988.863	5416.12
989.084	5368.12
989.305	5331.12
989.526	5332.12
989.747	5272.12
989.967	5285.12
990.188	5186.12
990.409	5197.12
990.629	5175.12
990.85	5063.12
991.071	5093.12
991.291	5005.12
991.512	5012.12
991.732	4951.12
991.952	4963.12
992.173	4895.12
992.393	4981.12
992.613	4902.12
992.834	4938.12
993.054	4897.12
993.274	4840.12
993.494	4826.12
993.714	4881.12
993.934	4790.12
994.154	4812.12
994.374	4756.12
994.594	4689.12
994.813	4760.12
995.033	4735.12
995.253	4690.12
995.473	4673.12
995.692	4646.12
995.912	4660.12
996.131	4545.12
996.351	4543.12
996.57	4483.12
996.79	4507.12
997.009	4455.12
997.228	4391.12
997.448	4357.12
997.667	4301.12
997.886	4289.12
998.105	4240.12
998.325	4175.12
998.544	4173.12
998.763	4157.12
998.982	4129.12
999.201	4063.12
999.419	4100.12
999.638	4023.12
999.857	4015.12
1000.076	4053.12
1000.295	3996.12
1000.513	3958.12
1000.732	3990.12
1000.95	3912.12
1001.169	3984.12
1001.388	3912.12
1001.606	3915.12
1001.824	3875.12
1002.043	3838.12
1002.261	3817.12
1002.479	3888.12
1002.698	3777.12
1002.916	3808.12
1003.134	3816.12
1003.352	3765.12
1003.57	3770.12
1003.788	3755.12
1004.006	3764.12
1004.224	3769.12
1004.442	3666.12
1004.66	3712.12
1004.878	3701.12
1005.095	3662.12
1005.313	3654.12
1005.531	3604.12
1005.748	3610.12
1005.966	3658.12
1006.184	3542.12
1006.401	3587.12
1006.618	3528.12
1006.836	3496.12
1007.053	3512.12
1007.271	3552.12
1007.488	3471.12
1007.705	3500.12
1007.922	3461.12
1008.139	3450.12
1008.357	3487.12
1008.574	3493.12
1008.791	3479.12
1009.008	3524.12
1009.225	3491.12
1009.441	3561.12
1009.658	3590.12
1009.875	3555.12
1010.092	3506.12
1010.309	3520.12
1010.525	3541.12
1010.742	3424.12
1010.958	3373.12
1011.175	3382.12
1011.391	3324.12
1011.608	3293.12
1011.824	3239.12
1012.041	3249.12
1012.257	3214.12
1012.473	3213.12
1012.689	3175.12
1012.906	3169.12
1013.122	3162.12
1013.338	3161.12
1013.554	3168.12
1013.77	3088.12
1013.986	3136.12
1014.202	3175.12
1014.418	3200.12
1014.634	3280.12
1014.849	3349.12
1015.065	3343.12
1015.281	3331.12
1015.496	3304.12
1015.712	3240.12
1015.928	3252.12
1016.143	3173.12
1016.359	3105.12
1016.574	3062.12
1016.79	2998.12
1017.005	2959.12
1017.22	2897.12
1017.435	2846.12
1017.651	2792.12
1017.866	2733.12
1018.081	2675.12
1018.296	2662.12
1018.511	2658.12
1018.726	2615.12
1018.941	2618.12
1019.156	2517.12
1019.371	2522.12
1019.586	2527.12
1019.801	2542.12
1020.015	2486.12
1020.23	2489.12
1020.445	2460.12
1020.659	2413.12
1020.874	2435.12
1021.088	2396.12
1021.303	2322.12
1021.517	2313.12
1021.732	2290.12
1021.946	2282.12
1022.16	2235.12
1022.375	2181.12
1022.589	2191.12
1022.803	2132.12
1023.017	2119.12
1023.231	2040.12
1023.445	2053.12
1023.659	1977.12
1023.873	1984.12
1024.087	1897.12
1024.301	1870.12
1024.515	1864.12
1024.729	1828.12
1024.942	1775.12
1025.156	1777.12
1025.37	1737.12
1025.583	1716.12
1025.797	1641.12
1026.01	1653.12
1026.224	1577.12
1026.437	1568.12
1026.651	1531.12
1026.864	1480.12
1027.077	1442.12
1027.291	1403.12
1027.504	1360.12
1027.717	1347.12
1027.93	1309.12
1028.143	1267.12
1028.356	1224.12
1028.569	1165.12
1028.782	1098.12
1028.995	-1.88
1029.208	-1.88
1029.421	-1.88
1029.634	-3.88
