Data from QEP037381__355__15-41-06-562.txt Node

Date: Mon Mar 14 15:41:06 EDT 2022
User: dcclab
Spectrometer: QEP03738
Trigger mode: 4
Integration Time (sec): 2.500000E0
Scans to average: 1
Electric dark correction enabled: true
Nonlinearity correction enabled: false
Boxcar width: 0
XAxis mode: Wavelengths
Number of Pixels in Spectrum: 1044
>>>>>Begin Spectral Data<<<<<
783.959	11.38
784.218	2.38
784.476	-4.62
784.734	-5.62
784.992	267.38
785.251	250.38
785.509	245.38
785.767	239.38
786.025	236.38
786.283	252.38
786.541	241.38
786.798	252.38
787.056	242.38
787.314	231.38
787.572	237.38
787.83	240.38
788.087	246.38
788.345	239.38
788.602	235.38
788.86	239.38
789.117	254.38
789.375	234.38
789.632	250.38
789.89	247.38
790.147	259.38
790.404	256.38
790.661	263.38
790.919	275.38
791.176	283.38
791.433	274.38
791.69	281.38
791.947	286.38
792.204	282.38
792.461	306.38
792.718	287.38
792.974	303.38
793.231	304.38
793.488	346.38
793.745	341.38
794.001	347.38
794.258	382.38
794.514	383.38
794.771	408.38
795.027	407.38
795.284	416.38
795.54	453.38
795.797	477.38
796.053	531.38
796.309	542.38
796.565	592.38
796.822	663.38
797.078	764.38
797.334	882.38
797.59	1037.38
797.846	1282.38
798.102	1684.38
798.358	2187.38
798.614	3119.38
798.869	4613.38
799.125	6768.38
799.381	9880.38
799.637	14109.38
799.892	19136.38
800.148	24666.38
800.403	30164.38
800.659	34786.38
800.914	38322.38
801.17	40888.38
801.425	42636.38
801.68	43857.38
801.936	44763.38
802.191	45893.38
802.446	46960.38
802.701	47954.38
802.957	48996.38
803.212	49947.38
803.467	50786.38
803.722	52031.38
803.977	52910.38
804.232	53908.38
804.486	54967.38
804.741	56226.38
804.996	57223.38
805.251	58261.38
805.505	59457.38
805.76	60410.38
806.015	61157.38
806.269	62005.38
806.524	62873.38
806.778	63187.38
807.033	63856.38
807.287	64691.38
807.541	65484.38
807.796	66592.38
808.05	67415.38
808.304	67953.38
808.558	68197.38
808.812	68874.38
809.066	69557.38
809.32	69882.38
809.574	70330.38
809.828	71009.38
810.082	71196.38
810.336	71875.38
810.59	72625.38
810.844	73728.38
811.097	74578.38
811.351	75716.38
811.605	77004.38
811.858	78271.38
812.112	79482.38
812.365	80783.38
812.619	82184.38
812.872	83231.38
813.126	84376.38
813.379	85454.38
813.632	86644.38
813.885	87680.38
814.139	88927.38
814.392	90330.38
814.645	91793.38
814.898	93638.38
815.151	95209.38
815.404	97041.38
815.657	98802.38
815.91	100333.38
816.163	101624.38
816.416	102582.38
816.668	103221.38
816.921	104032.38
817.174	104473.38
817.426	104278.38
817.679	104414.38
817.931	104124.38
818.184	104226.38
818.436	104223.38
818.689	104459.38
818.941	104660.38
819.194	105262.38
819.446	105630.38
819.698	105826.38
819.95	106335.38
820.202	106591.38
820.455	107064.38
820.707	107592.38
820.959	107701.38
821.211	107455.38
821.462	107586.38
821.714	107366.38
821.966	106965.38
822.218	106587.38
822.47	105839.38
822.722	105723.38
822.973	105201.38
823.225	105107.38
823.476	104888.38
823.728	104693.38
823.979	105095.38
824.231	105152.38
824.482	105136.38
824.734	105140.38
824.985	105282.38
825.236	105291.38
825.487	105021.38
825.739	104386.38
825.99	104182.38
826.241	103698.38
826.492	103175.38
826.743	103035.38
826.994	102510.38
827.245	102126.38
827.496	101970.38
827.747	101733.38
827.997	101830.38
828.248	101542.38
828.499	101828.38
828.75	101669.38
829	101981.38
829.251	102032.38
829.501	101747.38
829.752	101486.38
830.002	101060.38
830.253	100260.38
830.503	99678.38
830.753	99106.38
831.004	98425.38
831.254	98080.38
831.504	97733.38
831.754	97737.38
832.004	97632.38
832.254	97606.38
832.504	97842.38
832.754	97880.38
833.004	97878.38
833.254	97722.38
833.504	97490.38
833.754	96982.38
834.003	96762.38
834.253	96656.38
834.503	95912.38
834.752	95078.38
835.002	95001.38
835.252	94618.38
835.501	94009.38
835.75	93810.38
836	93490.38
836.249	93483.38
836.499	93518.38
836.748	93440.38
836.997	93495.38
837.246	93572.38
837.495	93997.38
837.744	94265.38
837.993	94909.38
838.242	95274.38
838.491	95111.38
838.74	93883.38
838.989	92766.38
839.238	92029.38
839.487	91386.38
839.736	90928.38
839.984	90481.38
840.233	89875.38
840.482	89348.38
840.73	89328.38
840.979	88843.38
841.227	88695.38
841.476	88232.38
841.724	87935.38
841.972	87466.38
842.221	87373.38
842.469	87354.38
842.717	86988.38
842.965	86546.38
843.213	86426.38
843.461	86267.38
843.71	85882.38
843.958	85687.38
844.205	85149.38
844.453	84872.38
844.701	85001.38
844.949	84976.38
845.197	84914.38
845.445	85069.38
845.692	85026.38
845.94	85295.38
846.188	85195.38
846.435	84885.38
846.683	84750.38
846.93	84478.38
847.178	84016.38
847.425	83393.38
847.672	82459.38
847.92	81957.38
848.167	81317.38
848.414	80747.38
848.661	80062.38
848.908	79459.38
849.155	79346.38
849.402	79420.38
849.649	79443.38
849.896	79634.38
850.143	80085.38
850.39	80335.38
850.637	80240.38
850.884	80312.38
851.131	80236.38
851.377	80047.38
851.624	79829.38
851.87	79368.38
852.117	78810.38
852.364	78607.38
852.61	78188.38
852.856	78148.38
853.103	77646.38
853.349	77568.38
853.595	76917.38
853.842	76655.38
854.088	76383.38
854.334	76601.38
854.58	76516.38
854.826	75929.38
855.072	75479.38
855.318	75013.38
855.564	74226.38
855.81	73496.38
856.056	73133.38
856.302	72508.38
856.548	71981.38
856.793	71734.38
857.039	71299.38
857.285	71206.38
857.53	70902.38
857.776	71193.38
858.021	71268.38
858.267	71607.38
858.512	71822.38
858.758	72005.38
859.003	71924.38
859.248	71795.38
859.493	71684.38
859.739	71449.38
859.984	71103.38
860.229	70945.38
860.474	70407.38
860.719	70211.38
860.964	69671.38
861.209	69181.38
861.454	68954.38
861.699	68543.38
861.943	68017.38
862.188	67802.38
862.433	67405.38
862.678	67386.38
862.922	67284.38
863.167	66998.38
863.411	66878.38
863.656	66744.38
863.9	66557.38
864.145	66114.38
864.389	65872.38
864.634	65545.38
864.878	65395.38
865.122	65062.38
865.366	65020.38
865.61	64848.38
865.855	64632.38
866.099	64693.38
866.343	64617.38
866.587	64562.38
866.831	64368.38
867.074	64382.38
867.318	64369.38
867.562	64301.38
867.806	64402.38
868.05	64122.38
868.293	64147.38
868.537	63698.38
868.78	63580.38
869.024	63134.38
869.267	62736.38
869.511	62270.38
869.754	61834.38
869.998	61281.38
870.241	60521.38
870.484	60337.38
870.728	59764.38
870.971	59366.38
871.214	59264.38
871.457	59006.38
871.7	59020.38
871.943	59183.38
872.186	59050.38
872.429	59147.38
872.672	59191.38
872.915	59022.38
873.158	59066.38
873.4	59014.38
873.643	58667.38
873.886	58432.38
874.128	58264.38
874.371	58219.38
874.613	58095.38
874.856	58002.38
875.098	57787.38
875.341	57578.38
875.583	57347.38
875.825	57226.38
876.068	56894.38
876.31	56461.38
876.552	56159.38
876.794	55603.38
877.036	55116.38
877.278	54773.38
877.52	54669.38
877.762	54436.38
878.004	54099.38
878.246	54067.38
878.488	53870.38
878.73	53883.38
878.972	53586.38
879.213	53846.38
879.455	53836.38
879.697	53702.38
879.938	53514.38
880.18	53415.38
880.421	53145.38
880.663	52994.38
880.904	53021.38
881.145	53119.38
881.387	53045.38
881.628	53137.38
881.869	52834.38
882.11	52769.38
882.352	52435.38
882.593	52312.38
882.834	52253.38
883.075	51907.38
883.316	51864.38
883.557	51717.38
883.797	51348.38
884.038	51054.38
884.279	50508.38
884.52	49964.38
884.761	49427.38
885.001	49128.38
885.242	48662.38
885.482	48321.38
885.723	48125.38
885.963	47963.38
886.204	47904.38
886.444	47604.38
886.685	47482.38
886.925	47122.38
887.165	46965.38
887.405	46607.38
887.646	46409.38
887.886	46404.38
888.126	46249.38
888.366	46535.38
888.606	46447.38
888.846	46549.38
889.086	46647.38
889.326	46664.38
889.565	46614.38
889.805	46601.38
890.045	46321.38
890.285	46299.38
890.524	46137.38
890.764	46068.38
891.003	45624.38
891.243	44982.38
891.482	44812.38
891.722	44386.38
891.961	44031.38
892.201	43715.38
892.44	43606.38
892.679	43348.38
892.918	43383.38
893.158	43000.38
893.397	43085.38
893.636	42952.38
893.875	42770.38
894.114	42589.38
894.353	42270.38
894.592	42209.38
894.831	42135.38
895.069	41750.38
895.308	41630.38
895.547	41258.38
895.786	41078.38
896.024	41042.38
896.263	40957.38
896.501	40711.38
896.74	40878.38
896.978	40698.38
897.217	40536.38
897.455	40549.38
897.694	40292.38
897.932	40247.38
898.17	40200.38
898.408	39987.38
898.646	39744.38
898.885	39610.38
899.123	39563.38
899.361	39352.38
899.599	38941.38
899.837	38834.38
900.075	38452.38
900.312	38214.38
900.55	37923.38
900.788	37600.38
901.026	37232.38
901.263	37031.38
901.501	36797.38
901.739	36478.38
901.976	36391.38
902.214	36110.38
902.451	36029.38
902.689	36033.38
902.926	35809.38
903.163	35897.38
903.401	35852.38
903.638	35959.38
903.875	35828.38
904.112	35803.38
904.349	35600.38
904.586	35523.38
904.823	35426.38
905.06	35217.38
905.297	34921.38
905.534	34663.38
905.771	34458.38
906.008	34230.38
906.245	34120.38
906.481	33805.38
906.718	33756.38
906.955	33471.38
907.191	33397.38
907.428	33332.38
907.664	33110.38
907.901	32909.38
908.137	32839.38
908.374	32596.38
908.61	32559.38
908.846	32382.38
909.083	32305.38
909.319	32056.38
909.555	31871.38
909.791	31687.38
910.027	31382.38
910.263	31096.38
910.499	30897.38
910.735	30687.38
910.971	30543.38
911.207	30256.38
911.443	30164.38
911.678	30080.38
911.914	29916.38
912.15	29860.38
912.385	29641.38
912.621	29694.38
912.857	29703.38
913.092	29604.38
913.328	29523.38
913.563	29512.38
913.798	29543.38
914.034	29445.38
914.269	29349.38
914.504	29206.38
914.739	29119.38
914.975	28959.38
915.21	28792.38
915.445	28541.38
915.68	28344.38
915.915	28165.38
916.15	27724.38
916.384	27448.38
916.619	27127.38
916.854	26915.38
917.089	26709.38
917.324	26743.38
917.558	26461.38
917.793	26336.38
918.028	26219.38
918.262	26196.38
918.497	26106.38
918.731	26059.38
918.965	26080.38
919.2	26023.38
919.434	25843.38
919.668	25834.38
919.903	25895.38
920.137	25510.38
920.371	25548.38
920.605	25391.38
920.839	25187.38
921.073	24908.38
921.307	24790.38
921.541	24574.38
921.775	24626.38
922.009	24342.38
922.243	24377.38
922.476	24277.38
922.71	24353.38
922.944	24376.38
923.177	24262.38
923.411	24220.38
923.644	24094.38
923.878	23955.38
924.111	23969.38
924.345	23865.38
924.578	23748.38
924.811	23578.38
925.045	23480.38
925.278	23399.38
925.511	23165.38
925.744	22817.38
925.977	22792.38
926.21	22609.38
926.443	22392.38
926.676	22226.38
926.909	22268.38
927.142	21946.38
927.375	21790.38
927.608	21630.38
927.841	21617.38
928.073	21426.38
928.306	21347.38
928.539	21387.38
928.771	21380.38
929.004	21228.38
929.236	21299.38
929.469	21349.38
929.701	21296.38
929.933	21346.38
930.166	21267.38
930.398	21214.38
930.63	21264.38
930.862	21236.38
931.094	21001.38
931.327	20946.38
931.559	20833.38
931.791	20574.38
932.023	20438.38
932.255	20302.38
932.486	20167.38
932.718	20049.38
932.95	19905.38
933.182	19751.38
933.413	19670.38
933.645	19714.38
933.877	19541.38
934.108	19426.38
934.34	19288.38
934.571	19289.38
934.803	19218.38
935.034	19161.38
935.265	18971.38
935.497	18948.38
935.728	18905.38
935.959	18797.38
936.19	18691.38
936.422	18612.38
936.653	18526.38
936.884	18321.38
937.115	18223.38
937.346	18249.38
937.577	18187.38
937.807	17950.38
938.038	17933.38
938.269	17802.38
938.5	17900.38
938.73	17790.38
938.961	17706.38
939.192	17711.38
939.422	17671.38
939.653	17625.38
939.883	17503.38
940.114	17575.38
940.344	17526.38
940.574	17485.38
940.805	17400.38
941.035	17221.38
941.265	17126.38
941.495	16924.38
941.726	16807.38
941.956	16785.38
942.186	16610.38
942.416	16545.38
942.646	16331.38
942.876	16168.38
943.105	16056.38
943.335	15912.38
943.565	15869.38
943.795	15704.38
944.024	15567.38
944.254	15512.38
944.484	15400.38
944.713	15372.38
944.943	15289.38
945.172	15149.38
945.402	15141.38
945.631	15128.38
945.86	15115.38
946.09	15030.38
946.319	15029.38
946.548	15044.38
946.777	15007.38
947.006	14931.38
947.235	14773.38
947.465	14664.38
947.694	14640.38
947.922	14577.38
948.151	14442.38
948.38	14333.38
948.609	14119.38
948.838	14103.38
949.067	14024.38
949.295	13899.38
949.524	13873.38
949.752	13727.38
949.981	13583.38
950.21	13564.38
950.438	13507.38
950.666	13403.38
950.895	13270.38
951.123	13238.38
951.351	13213.38
951.58	13042.38
951.808	13009.38
952.036	13001.38
952.264	12865.38
952.492	12825.38
952.72	12769.38
952.948	12689.38
953.176	12638.38
953.404	12488.38
953.632	12306.38
953.86	12286.38
954.088	12200.38
954.315	12077.38
954.543	12039.38
954.771	11941.38
954.998	11906.38
955.226	11858.38
955.453	11756.38
955.681	11793.38
955.908	11722.38
956.135	11676.38
956.363	11612.38
956.59	11518.38
956.817	11637.38
957.045	11591.38
957.272	11518.38
957.499	11496.38
957.726	11388.38
957.953	11379.38
958.18	11278.38
958.407	11247.38
958.634	11170.38
958.861	11038.38
959.087	11003.38
959.314	10901.38
959.541	10862.38
959.767	10747.38
959.994	10712.38
960.221	10614.38
960.447	10503.38
960.674	10444.38
960.9	10435.38
961.127	10290.38
961.353	10276.38
961.579	10154.38
961.806	10106.38
962.032	10078.38
962.258	9988.38
962.484	9953.38
962.71	9981.38
962.936	9893.38
963.162	9864.38
963.388	9805.38
963.614	9799.38
963.84	9803.38
964.066	9786.38
964.292	9700.38
964.518	9729.38
964.743	9676.38
964.969	9609.38
965.195	9553.38
965.42	9503.38
965.646	9525.38
965.871	9417.38
966.097	9377.38
966.322	9296.38
966.547	9258.38
966.773	9267.38
966.998	9192.38
967.223	9132.38
967.448	9056.38
967.674	8989.38
967.899	8904.38
968.124	8978.38
968.349	8890.38
968.574	8810.38
968.799	8745.38
969.024	8710.38
969.248	8665.38
969.473	8689.38
969.698	8528.38
969.923	8428.38
970.147	8433.38
970.372	8416.38
970.596	8392.38
970.821	8284.38
971.046	8271.38
971.27	8231.38
971.494	8147.38
971.719	8086.38
971.943	8042.38
972.167	8038.38
972.392	7916.38
972.616	7869.38
972.84	7887.38
973.064	7804.38
973.288	7784.38
973.512	7724.38
973.736	7742.38
973.96	7654.38
974.184	7605.38
974.408	7630.38
974.631	7643.38
974.855	7567.38
975.079	7586.38
975.303	7535.38
975.526	7500.38
975.75	7501.38
975.973	7447.38
976.197	7414.38
976.42	7398.38
976.644	7295.38
976.867	7277.38
977.09	7268.38
977.313	7223.38
977.537	7122.38
977.76	7111.38
977.983	7012.38
978.206	6990.38
978.429	6905.38
978.652	6895.38
978.875	6815.38
979.098	6761.38
979.321	6759.38
979.544	6668.38
979.767	6642.38
979.989	6590.38
980.212	6543.38
980.435	6531.38
980.657	6457.38
980.88	6483.38
981.102	6437.38
981.325	6448.38
981.547	6342.38
981.77	6340.38
981.992	6263.38
982.214	6270.38
982.437	6270.38
982.659	6271.38
982.881	6231.38
983.103	6212.38
983.325	6166.38
983.547	6196.38
983.769	6105.38
983.991	6030.38
984.213	6027.38
984.435	6079.38
984.657	6006.38
984.879	5923.38
985.1	5953.38
985.322	5896.38
985.544	5887.38
985.765	5814.38
985.987	5806.38
986.208	5724.38
986.43	5738.38
986.651	5757.38
986.873	5707.38
987.094	5630.38
987.315	5605.38
987.536	5573.38
987.758	5559.38
987.979	5489.38
988.2	5461.38
988.421	5448.38
988.642	5382.38
988.863	5348.38
989.084	5282.38
989.305	5328.38
989.526	5249.38
989.747	5194.38
989.967	5214.38
990.188	5190.38
990.409	5094.38
990.629	5042.38
990.85	5098.38
991.071	5007.38
991.291	5031.38
991.512	4906.38
991.732	4943.38
991.952	4942.38
992.173	4868.38
992.393	4832.38
992.613	4841.38
992.834	4855.38
993.054	4788.38
993.274	4841.38
993.494	4777.38
993.714	4756.38
993.934	4790.38
994.154	4752.38
994.374	4749.38
994.594	4662.38
994.813	4652.38
995.033	4657.38
995.253	4697.38
995.473	4628.38
995.692	4564.38
995.912	4583.38
996.131	4510.38
996.351	4494.38
996.57	4475.38
996.79	4421.38
997.009	4300.38
997.228	4351.38
997.448	4287.38
997.667	4299.38
997.886	4242.38
998.105	4208.38
998.325	4152.38
998.544	4121.38
998.763	4085.38
998.982	4116.38
999.201	4029.38
999.419	4018.38
999.638	4009.38
999.857	3978.38
1000.076	3993.38
1000.295	3953.38
1000.513	3980.38
1000.732	3901.38
1000.95	3875.38
1001.169	3880.38
1001.388	3892.38
1001.606	3848.38
1001.824	3863.38
1002.043	3850.38
1002.261	3826.38
1002.479	3801.38
1002.698	3787.38
1002.916	3773.38
1003.134	3817.38
1003.352	3699.38
1003.57	3734.38
1003.788	3670.38
1004.006	3611.38
1004.224	3682.38
1004.442	3625.38
1004.66	3626.38
1004.878	3610.38
1005.095	3612.38
1005.313	3575.38
1005.531	3536.38
1005.748	3563.38
1005.966	3629.38
1006.184	3512.38
1006.401	3511.38
1006.618	3457.38
1006.836	3463.38
1007.053	3446.38
1007.271	3478.38
1007.488	3446.38
1007.705	3487.38
1007.922	3482.38
1008.139	3436.38
1008.357	3470.38
1008.574	3436.38
1008.791	3474.38
1009.008	3495.38
1009.225	3483.38
1009.441	3440.38
1009.658	3539.38
1009.875	3507.38
1010.092	3491.38
1010.309	3457.38
1010.525	3428.38
1010.742	3378.38
1010.958	3318.38
1011.175	3356.38
1011.391	3310.38
1011.608	3298.38
1011.824	3261.38
1012.041	3250.38
1012.257	3224.38
1012.473	3173.38
1012.689	3171.38
1012.906	3118.38
1013.122	3101.38
1013.338	3097.38
1013.554	3092.38
1013.77	3108.38
1013.986	3072.38
1014.202	3132.38
1014.418	3208.38
1014.634	3238.38
1014.849	3268.38
1015.065	3278.38
1015.281	3266.38
1015.496	3274.38
1015.712	3260.38
1015.928	3202.38
1016.143	3106.38
1016.359	3084.38
1016.574	3011.38
1016.79	2967.38
1017.005	2937.38
1017.22	2893.38
1017.435	2823.38
1017.651	2746.38
1017.866	2705.38
1018.081	2684.38
1018.296	2577.38
1018.511	2626.38
1018.726	2594.38
1018.941	2592.38
1019.156	2549.38
1019.371	2493.38
1019.586	2521.38
1019.801	2496.38
1020.015	2466.38
1020.23	2488.38
1020.445	2449.38
1020.659	2400.38
1020.874	2367.38
1021.088	2372.38
1021.303	2303.38
1021.517	2293.38
1021.732	2263.38
1021.946	2261.38
1022.16	2227.38
1022.375	2204.38
1022.589	2158.38
1022.803	2140.38
1023.017	2102.38
1023.231	2054.38
1023.445	2018.38
1023.659	1975.38
1023.873	1933.38
1024.087	1872.38
1024.301	1857.38
1024.515	1814.38
1024.729	1811.38
1024.942	1761.38
1025.156	1741.38
1025.37	1727.38
1025.583	1689.38
1025.797	1634.38
1026.01	1619.38
1026.224	1602.38
1026.437	1557.38
1026.651	1494.38
1026.864	1452.38
1027.077	1431.38
1027.291	1403.38
1027.504	1362.38
1027.717	1343.38
1027.93	1258.38
1028.143	1278.38
1028.356	1206.38
1028.569	1181.38
1028.782	1070.38
1028.995	-0.62
1029.208	-3.62
1029.421	0.38
1029.634	0.38
