Data from QEP037381__342__15-40-34-062.txt Node

Date: Mon Mar 14 15:40:34 EDT 2022
User: dcclab
Spectrometer: QEP03738
Trigger mode: 4
Integration Time (sec): 2.500000E0
Scans to average: 1
Electric dark correction enabled: true
Nonlinearity correction enabled: false
Boxcar width: 0
XAxis mode: Wavelengths
Number of Pixels in Spectrum: 1044
>>>>>Begin Spectral Data<<<<<
783.959	11.38
784.218	-0.62
784.476	-1.62
784.734	-4.62
784.992	267.38
785.251	259.38
785.509	248.38
785.767	237.38
786.025	253.38
786.283	258.38
786.541	251.38
786.798	253.38
787.056	244.38
787.314	229.38
787.572	251.38
787.83	243.38
788.087	248.38
788.345	246.38
788.602	247.38
788.86	249.38
789.117	261.38
789.375	245.38
789.632	243.38
789.89	247.38
790.147	262.38
790.404	261.38
790.661	257.38
790.919	281.38
791.176	283.38
791.433	271.38
791.69	278.38
791.947	287.38
792.204	277.38
792.461	290.38
792.718	298.38
792.974	301.38
793.231	314.38
793.488	337.38
793.745	335.38
794.001	342.38
794.258	384.38
794.514	352.38
794.771	396.38
795.027	432.38
795.284	427.38
795.54	466.38
795.797	488.38
796.053	539.38
796.309	569.38
796.565	621.38
796.822	684.38
797.078	760.38
797.334	882.38
797.59	1056.38
797.846	1325.38
798.102	1711.38
798.358	2312.38
798.614	3252.38
798.869	4713.38
799.125	6955.38
799.381	10183.38
799.637	14492.38
799.892	19560.38
800.148	25274.38
800.403	30813.38
800.659	35574.38
800.914	39235.38
801.17	41665.38
801.425	43511.38
801.68	44620.38
801.936	45753.38
802.191	46544.38
802.446	47625.38
802.701	48896.38
802.957	49914.38
803.212	50766.38
803.467	51919.38
803.722	52753.38
803.977	54035.38
804.232	54898.38
804.486	55910.38
804.741	57005.38
804.996	58189.38
805.251	59318.38
805.505	60299.38
805.76	61440.38
806.015	62208.38
806.269	62812.38
806.524	63834.38
806.778	64469.38
807.033	65003.38
807.287	65659.38
807.541	66663.38
807.796	67674.38
808.05	68537.38
808.304	69144.38
808.558	69466.38
808.812	69824.38
809.066	70896.38
809.32	71207.38
809.574	71765.38
809.828	72208.38
810.082	72837.38
810.336	73269.38
810.59	73777.38
810.844	74933.38
811.097	75854.38
811.351	77060.38
811.605	78275.38
811.858	79641.38
812.112	80769.38
812.365	82267.38
812.619	83564.38
812.872	84746.38
813.126	85791.38
813.379	87107.38
813.632	88093.38
813.885	89481.38
814.139	90609.38
814.392	91987.38
814.645	93435.38
814.898	95189.38
815.151	96833.38
815.404	98649.38
815.657	100320.38
815.91	102005.38
816.163	103247.38
816.416	104060.38
816.668	105022.38
816.921	105550.38
817.174	106210.38
817.426	106238.38
817.679	106172.38
817.931	106119.38
818.184	105924.38
818.436	106036.38
818.689	106042.38
818.941	106287.38
819.194	107061.38
819.446	107371.38
819.698	107858.38
819.95	108117.38
820.202	108489.38
820.455	109040.38
820.707	109354.38
820.959	109483.38
821.211	109402.38
821.462	109445.38
821.714	109196.38
821.966	108756.38
822.218	108485.38
822.47	107534.38
822.722	107358.38
822.973	107220.38
823.225	106428.38
823.476	106728.38
823.728	106661.38
823.979	106722.38
824.231	106742.38
824.482	107097.38
824.734	107126.38
824.985	106841.38
825.236	107007.38
825.487	106597.38
825.739	106115.38
825.99	105921.38
826.241	105684.38
826.492	105127.38
826.743	104462.38
826.994	104218.38
827.245	103676.38
827.496	103545.38
827.747	103240.38
827.997	103419.38
828.248	103550.38
828.499	103737.38
828.75	103824.38
829	103843.38
829.251	103560.38
829.501	103373.38
829.752	103261.38
830.002	102466.38
830.253	102001.38
830.503	101426.38
830.753	100555.38
831.004	100316.38
831.254	99650.38
831.504	99544.38
831.754	99435.38
832.004	99218.38
832.254	99197.38
832.504	99325.38
832.754	99360.38
833.004	99389.38
833.254	99225.38
833.504	98984.38
833.754	98641.38
834.003	98268.38
834.253	98047.38
834.503	97532.38
834.752	97075.38
835.002	96548.38
835.252	96070.38
835.501	95599.38
835.75	95320.38
836	95296.38
836.249	95120.38
836.499	95219.38
836.748	94919.38
836.997	94790.38
837.246	95083.38
837.495	95359.38
837.744	95812.38
837.993	96453.38
838.242	96513.38
838.491	96282.38
838.74	95233.38
838.989	94403.38
839.238	93618.38
839.487	92793.38
839.736	92215.38
839.984	91688.38
840.233	91554.38
840.482	90981.38
840.73	90824.38
840.979	90400.38
841.227	89996.38
841.476	89754.38
841.724	89437.38
841.972	88951.38
842.221	88743.38
842.469	88604.38
842.717	88206.38
842.965	87644.38
843.213	87860.38
843.461	87554.38
843.71	87051.38
843.958	86760.38
844.205	86647.38
844.453	86464.38
844.701	86365.38
844.949	86276.38
845.197	85950.38
845.445	86402.38
845.692	86370.38
845.94	86213.38
846.188	86426.38
846.435	86433.38
846.683	86216.38
846.93	85855.38
847.178	85537.38
847.425	84603.38
847.672	83885.38
847.92	83326.38
848.167	82635.38
848.414	81716.38
848.661	81351.38
848.908	80863.38
849.155	80710.38
849.402	80542.38
849.649	80670.38
849.896	80616.38
850.143	81468.38
850.39	81650.38
850.637	81661.38
850.884	81504.38
851.131	81380.38
851.377	80958.38
851.624	80931.38
851.87	80642.38
852.117	80076.38
852.364	79766.38
852.61	79513.38
852.856	79182.38
853.103	78862.38
853.349	78616.38
853.595	78077.38
853.842	77776.38
854.088	77468.38
854.334	77704.38
854.58	77600.38
854.826	77140.38
855.072	76646.38
855.318	76096.38
855.564	75502.38
855.81	74704.38
856.056	74171.38
856.302	73628.38
856.548	73156.38
856.793	72652.38
857.039	72425.38
857.285	72165.38
857.53	71889.38
857.776	72123.38
858.021	72636.38
858.267	72738.38
858.512	72730.38
858.758	72896.38
859.003	73006.38
859.248	72937.38
859.493	72856.38
859.739	72742.38
859.984	72482.38
860.229	71972.38
860.474	71473.38
860.719	71423.38
860.964	70941.38
861.209	70190.38
861.454	69929.38
861.699	69408.38
861.943	69245.38
862.188	68908.38
862.433	68646.38
862.678	68296.38
862.922	68236.38
863.167	67975.38
863.411	67878.38
863.656	67683.38
863.9	67414.38
864.145	67037.38
864.389	66755.38
864.634	66597.38
864.878	66278.38
865.122	66127.38
865.366	65928.38
865.61	65813.38
865.855	65611.38
866.099	65554.38
866.343	65355.38
866.587	65443.38
866.831	65139.38
867.074	65294.38
867.318	65286.38
867.562	65165.38
867.806	65121.38
868.05	65055.38
868.293	65037.38
868.537	64628.38
868.78	64398.38
869.024	64199.38
869.267	63673.38
869.511	63270.38
869.754	62624.38
869.998	62213.38
870.241	61507.38
870.484	61033.38
870.728	60772.38
870.971	60265.38
871.214	60174.38
871.457	59840.38
871.7	59904.38
871.943	59813.38
872.186	60066.38
872.429	59928.38
872.672	59868.38
872.915	59855.38
873.158	59896.38
873.4	59811.38
873.643	59339.38
873.886	59320.38
874.128	59334.38
874.371	59117.38
874.613	59107.38
874.856	58844.38
875.098	58506.38
875.341	58397.38
875.583	58308.38
875.825	57899.38
876.068	57642.38
876.31	57391.38
876.552	57046.38
876.794	56448.38
877.036	56031.38
877.278	55578.38
877.52	55351.38
877.762	55027.38
878.004	54963.38
878.246	54894.38
878.488	54767.38
878.73	54719.38
878.972	54668.38
879.213	54378.38
879.455	54625.38
879.697	54463.38
879.938	54370.38
880.18	54092.38
880.421	53862.38
880.663	53780.38
880.904	53801.38
881.145	53881.38
881.387	53952.38
881.628	53715.38
881.869	53644.38
882.11	53356.38
882.352	53134.38
882.593	53014.38
882.834	52881.38
883.075	52820.38
883.316	52562.38
883.557	52508.38
883.797	51976.38
884.038	51809.38
884.279	51226.38
884.52	50573.38
884.761	50286.38
885.001	49799.38
885.242	49328.38
885.482	49186.38
885.723	48982.38
885.963	48472.38
886.204	48392.38
886.444	48221.38
886.685	47973.38
886.925	47732.38
887.165	47460.38
887.405	47187.38
887.646	47214.38
887.886	47013.38
888.126	47210.38
888.366	47026.38
888.606	47058.38
888.846	47080.38
889.086	47177.38
889.326	47355.38
889.565	47286.38
889.805	47216.38
890.045	46974.38
890.285	46896.38
890.524	46987.38
890.764	46784.38
891.003	46103.38
891.243	45664.38
891.482	45442.38
891.722	44999.38
891.961	44692.38
892.201	44507.38
892.44	44150.38
892.679	43827.38
892.918	43910.38
893.158	43677.38
893.397	43593.38
893.636	43513.38
893.875	43292.38
894.114	43120.38
894.353	43001.38
894.592	42861.38
894.831	42665.38
895.069	42245.38
895.308	41958.38
895.547	41769.38
895.786	41674.38
896.024	41485.38
896.263	41482.38
896.501	41330.38
896.74	41294.38
896.978	41201.38
897.217	41133.38
897.455	41009.38
897.694	40989.38
897.932	40809.38
898.17	40705.38
898.408	40587.38
898.646	40418.38
898.885	40116.38
899.123	40069.38
899.361	39778.38
899.599	39392.38
899.837	39257.38
900.075	38994.38
900.312	38741.38
900.55	38418.38
900.788	38116.38
901.026	37721.38
901.263	37363.38
901.501	37253.38
901.739	36930.38
901.976	36688.38
902.214	36635.38
902.451	36554.38
902.689	36373.38
902.926	36312.38
903.163	36388.38
903.401	36309.38
903.638	36427.38
903.875	36264.38
904.112	36244.38
904.349	36122.38
904.586	36029.38
904.823	35925.38
905.06	35677.38
905.297	35387.38
905.534	35214.38
905.771	34795.38
906.008	34637.38
906.245	34577.38
906.481	34267.38
906.718	34108.38
906.955	33972.38
907.191	33832.38
907.428	33665.38
907.664	33569.38
907.901	33311.38
908.137	33316.38
908.374	33339.38
908.61	32892.38
908.846	32864.38
909.083	32654.38
909.319	32463.38
909.555	32277.38
909.791	32011.38
910.027	31707.38
910.263	31488.38
910.499	31344.38
910.735	31025.38
910.971	30719.38
911.207	30710.38
911.443	30528.38
911.678	30281.38
911.914	30263.38
912.15	30171.38
912.385	30159.38
912.621	30075.38
912.857	30144.38
913.092	30017.38
913.328	29852.38
913.563	29910.38
913.798	29834.38
914.034	29892.38
914.269	29765.38
914.504	29679.38
914.739	29527.38
914.975	29291.38
915.21	29154.38
915.445	29084.38
915.68	28627.38
915.915	28293.38
916.15	27991.38
916.384	27678.38
916.619	27398.38
916.854	27330.38
917.089	27121.38
917.324	26960.38
917.558	26821.38
917.793	26609.38
918.028	26542.38
918.262	26455.38
918.497	26337.38
918.731	26350.38
918.965	26343.38
919.2	26292.38
919.434	26317.38
919.668	26187.38
919.903	25973.38
920.137	25932.38
920.371	25845.38
920.605	25750.38
920.839	25560.38
921.073	25328.38
921.307	25196.38
921.541	24939.38
921.775	24879.38
922.009	24733.38
922.243	24574.38
922.476	24689.38
922.71	24706.38
922.944	24648.38
923.177	24520.38
923.411	24483.38
923.644	24403.38
923.878	24228.38
924.111	24237.38
924.345	24210.38
924.578	24076.38
924.811	23925.38
925.045	23762.38
925.278	23546.38
925.511	23353.38
925.744	23366.38
925.977	22994.38
926.21	22917.38
926.443	22683.38
926.676	22534.38
926.909	22403.38
927.142	22156.38
927.375	21982.38
927.608	22015.38
927.841	21798.38
928.073	21800.38
928.306	21711.38
928.539	21585.38
928.771	21634.38
929.004	21560.38
929.236	21530.38
929.469	21570.38
929.701	21583.38
929.933	21442.38
930.166	21502.38
930.398	21412.38
930.63	21523.38
930.862	21434.38
931.094	21214.38
931.327	21188.38
931.559	21074.38
931.791	20854.38
932.023	20785.38
932.255	20605.38
932.486	20447.38
932.718	20260.38
932.95	20147.38
933.182	20055.38
933.413	20009.38
933.645	19837.38
933.877	19744.38
934.108	19718.38
934.34	19566.38
934.571	19573.38
934.803	19438.38
935.034	19319.38
935.265	19327.38
935.497	19156.38
935.728	19113.38
935.959	19044.38
936.19	19006.38
936.422	18797.38
936.653	18818.38
936.884	18735.38
937.115	18492.38
937.346	18378.38
937.577	18264.38
937.807	18200.38
938.038	18024.38
938.269	18124.38
938.5	18020.38
938.73	17947.38
938.961	17931.38
939.192	17887.38
939.422	17899.38
939.653	17875.38
939.883	17846.38
940.114	17711.38
940.344	17762.38
940.574	17636.38
940.805	17455.38
941.035	17409.38
941.265	17354.38
941.495	17141.38
941.726	17039.38
941.956	16913.38
942.186	16866.38
942.416	16616.38
942.646	16564.38
942.876	16488.38
943.105	16235.38
943.335	16157.38
943.565	16035.38
943.795	15848.38
944.024	15732.38
944.254	15696.38
944.484	15574.38
944.713	15539.38
944.943	15447.38
945.172	15316.38
945.402	15348.38
945.631	15346.38
945.86	15268.38
946.09	15210.38
946.319	15188.38
946.548	15096.38
946.777	15110.38
947.006	15041.38
947.235	14986.38
947.465	14967.38
947.694	14818.38
947.922	14680.38
948.151	14603.38
948.38	14490.38
948.609	14371.38
948.838	14237.38
949.067	14093.38
949.295	14047.38
949.524	13907.38
949.752	13835.38
949.981	13819.38
950.21	13772.38
950.438	13621.38
950.666	13588.38
950.895	13544.38
951.123	13412.38
951.351	13242.38
951.58	13110.38
951.808	13172.38
952.036	13055.38
952.264	12987.38
952.492	13067.38
952.72	12887.38
952.948	12812.38
953.176	12765.38
953.404	12667.38
953.632	12576.38
953.86	12479.38
954.088	12312.38
954.315	12246.38
954.543	12207.38
954.771	12014.38
954.998	11988.38
955.226	11992.38
955.453	11944.38
955.681	11801.38
955.908	11872.38
956.135	11771.38
956.363	11738.38
956.59	11699.38
956.817	11789.38
957.045	11746.38
957.272	11649.38
957.499	11611.38
957.726	11468.38
957.953	11528.38
958.18	11352.38
958.407	11311.38
958.634	11313.38
958.861	11226.38
959.087	11162.38
959.314	11096.38
959.541	10941.38
959.767	10899.38
959.994	10920.38
960.221	10733.38
960.447	10676.38
960.674	10599.38
960.9	10508.38
961.127	10419.38
961.353	10339.38
961.579	10277.38
961.806	10279.38
962.032	10151.38
962.258	10100.38
962.484	10083.38
962.71	10015.38
962.936	9982.38
963.162	10002.38
963.388	9898.38
963.614	9928.38
963.84	9983.38
964.066	9881.38
964.292	9829.38
964.518	9852.38
964.743	9783.38
964.969	9714.38
965.195	9666.38
965.42	9556.38
965.646	9608.38
965.871	9524.38
966.097	9486.38
966.322	9432.38
966.547	9408.38
966.773	9304.38
966.998	9243.38
967.223	9272.38
967.448	9208.38
967.674	9102.38
967.899	9088.38
968.124	9067.38
968.349	8999.38
968.574	8894.38
968.799	8852.38
969.024	8806.38
969.248	8774.38
969.473	8685.38
969.698	8666.38
969.923	8620.38
970.147	8501.38
970.372	8500.38
970.596	8458.38
970.821	8398.38
971.046	8355.38
971.27	8311.38
971.494	8269.38
971.719	8159.38
971.943	8180.38
972.167	8068.38
972.392	8002.38
972.616	7987.38
972.84	7987.38
973.064	7971.38
973.288	7872.38
973.512	7834.38
973.736	7770.38
973.96	7810.38
974.184	7726.38
974.408	7678.38
974.631	7647.38
974.855	7661.38
975.079	7727.38
975.303	7610.38
975.526	7560.38
975.75	7519.38
975.973	7446.38
976.197	7426.38
976.42	7379.38
976.644	7447.38
976.867	7356.38
977.09	7283.38
977.313	7229.38
977.537	7165.38
977.76	7188.38
977.983	7071.38
978.206	7074.38
978.429	6969.38
978.652	6935.38
978.875	6882.38
979.098	6891.38
979.321	6883.38
979.544	6725.38
979.767	6761.38
979.989	6638.38
980.212	6628.38
980.435	6602.38
980.657	6590.38
980.88	6501.38
981.102	6521.38
981.325	6476.38
981.547	6391.38
981.77	6404.38
981.992	6333.38
982.214	6327.38
982.437	6277.38
982.659	6251.38
982.881	6248.38
983.103	6249.38
983.325	6220.38
983.547	6197.38
983.769	6148.38
983.991	6084.38
984.213	6130.38
984.435	6043.38
984.657	5999.38
984.879	5990.38
985.1	5994.38
985.322	5947.38
985.544	5892.38
985.765	5893.38
985.987	5852.38
986.208	5843.38
986.43	5792.38
986.651	5697.38
986.873	5699.38
987.094	5695.38
987.315	5664.38
987.536	5598.38
987.758	5575.38
987.979	5551.38
988.2	5495.38
988.421	5470.38
988.642	5446.38
988.863	5368.38
989.084	5331.38
989.305	5301.38
989.526	5301.38
989.747	5279.38
989.967	5189.38
990.188	5194.38
990.409	5131.38
990.629	5070.38
990.85	5081.38
991.071	5056.38
991.291	5027.38
991.512	4983.38
991.732	4949.38
991.952	4952.38
992.173	4917.38
992.393	4922.38
992.613	4835.38
992.834	4943.38
993.054	4890.38
993.274	4847.38
993.494	4865.38
993.714	4849.38
993.934	4813.38
994.154	4761.38
994.374	4734.38
994.594	4744.38
994.813	4719.38
995.033	4649.38
995.253	4709.38
995.473	4643.38
995.692	4612.38
995.912	4580.38
996.131	4566.38
996.351	4561.38
996.57	4471.38
996.79	4489.38
997.009	4362.38
997.228	4361.38
997.448	4346.38
997.667	4300.38
997.886	4257.38
998.105	4224.38
998.325	4179.38
998.544	4163.38
998.763	4159.38
998.982	4078.38
999.201	4093.38
999.419	4067.38
999.638	4025.38
999.857	4024.38
1000.076	4022.38
1000.295	3936.38
1000.513	3987.38
1000.732	3957.38
1000.95	3900.38
1001.169	3933.38
1001.388	3908.38
1001.606	3878.38
1001.824	3918.38
1002.043	3826.38
1002.261	3839.38
1002.479	3851.38
1002.698	3765.38
1002.916	3794.38
1003.134	3767.38
1003.352	3736.38
1003.57	3735.38
1003.788	3752.38
1004.006	3698.38
1004.224	3670.38
1004.442	3658.38
1004.66	3670.38
1004.878	3630.38
1005.095	3623.38
1005.313	3639.38
1005.531	3639.38
1005.748	3576.38
1005.966	3652.38
1006.184	3540.38
1006.401	3527.38
1006.618	3522.38
1006.836	3511.38
1007.053	3469.38
1007.271	3502.38
1007.488	3469.38
1007.705	3458.38
1007.922	3455.38
1008.139	3424.38
1008.357	3462.38
1008.574	3479.38
1008.791	3474.38
1009.008	3555.38
1009.225	3495.38
1009.441	3520.38
1009.658	3529.38
1009.875	3557.38
1010.092	3528.38
1010.309	3471.38
1010.525	3492.38
1010.742	3423.38
1010.958	3341.38
1011.175	3379.38
1011.391	3354.38
1011.608	3292.38
1011.824	3289.38
1012.041	3267.38
1012.257	3222.38
1012.473	3199.38
1012.689	3146.38
1012.906	3183.38
1013.122	3137.38
1013.338	3120.38
1013.554	3108.38
1013.77	3100.38
1013.986	3112.38
1014.202	3172.38
1014.418	3189.38
1014.634	3257.38
1014.849	3271.38
1015.065	3335.38
1015.281	3345.38
1015.496	3351.38
1015.712	3268.38
1015.928	3183.38
1016.143	3197.38
1016.359	3106.38
1016.574	3080.38
1016.79	2994.38
1017.005	2944.38
1017.22	2871.38
1017.435	2825.38
1017.651	2799.38
1017.866	2715.38
1018.081	2682.38
1018.296	2686.38
1018.511	2621.38
1018.726	2590.38
1018.941	2561.38
1019.156	2548.38
1019.371	2542.38
1019.586	2572.38
1019.801	2539.38
1020.015	2500.38
1020.23	2472.38
1020.445	2471.38
1020.659	2449.38
1020.874	2404.38
1021.088	2364.38
1021.303	2342.38
1021.517	2294.38
1021.732	2234.38
1021.946	2254.38
1022.16	2262.38
1022.375	2204.38
1022.589	2179.38
1022.803	2127.38
1023.017	2065.38
1023.231	2058.38
1023.445	2040.38
1023.659	1973.38
1023.873	1932.38
1024.087	1925.38
1024.301	1857.38
1024.515	1874.38
1024.729	1824.38
1024.942	1772.38
1025.156	1778.38
1025.37	1721.38
1025.583	1710.38
1025.797	1656.38
1026.01	1622.38
1026.224	1568.38
1026.437	1559.38
1026.651	1509.38
1026.864	1445.38
1027.077	1466.38
1027.291	1412.38
1027.504	1369.38
1027.717	1328.38
1027.93	1305.38
1028.143	1242.38
1028.356	1231.38
1028.569	1169.38
1028.782	1102.38
1028.995	2.38
1029.208	-3.62
1029.421	-0.62
1029.634	-2.62
