Data from QEP037381__347__15-40-46-562.txt Node

Date: Mon Mar 14 15:40:46 EDT 2022
User: dcclab
Spectrometer: QEP03738
Trigger mode: 4
Integration Time (sec): 2.500000E0
Scans to average: 1
Electric dark correction enabled: true
Nonlinearity correction enabled: false
Boxcar width: 0
XAxis mode: Wavelengths
Number of Pixels in Spectrum: 1044
>>>>>Begin Spectral Data<<<<<
783.959	13.88
784.218	-0.12
784.476	-2.12
784.734	-3.12
784.992	271.88
785.251	243.88
785.509	237.88
785.767	241.88
786.025	243.88
786.283	243.88
786.541	235.88
786.798	240.88
787.056	238.88
787.314	220.88
787.572	247.88
787.83	240.88
788.087	240.88
788.345	238.88
788.602	234.88
788.86	241.88
789.117	242.88
789.375	228.88
789.632	235.88
789.89	243.88
790.147	256.88
790.404	257.88
790.661	262.88
790.919	267.88
791.176	269.88
791.433	271.88
791.69	280.88
791.947	279.88
792.204	265.88
792.461	272.88
792.718	301.88
792.974	296.88
793.231	305.88
793.488	335.88
793.745	321.88
794.001	339.88
794.258	370.88
794.514	351.88
794.771	385.88
795.027	403.88
795.284	428.88
795.54	452.88
795.797	455.88
796.053	516.88
796.309	547.88
796.565	582.88
796.822	652.88
797.078	749.88
797.334	870.88
797.59	1021.88
797.846	1291.88
798.102	1659.88
798.358	2197.88
798.614	3126.88
798.869	4555.88
799.125	6747.88
799.381	9819.88
799.637	13961.88
799.892	18899.88
800.148	24270.88
800.403	29597.88
800.659	34124.88
800.914	37648.88
801.17	40163.88
801.425	41676.88
801.68	42924.88
801.936	43685.88
802.191	44696.88
802.446	45619.88
802.701	46648.88
802.957	47846.88
803.212	48825.88
803.467	49621.88
803.722	50555.88
803.977	51701.88
804.232	52555.88
804.486	53804.88
804.741	54705.88
804.996	55797.88
805.251	56901.88
805.505	57935.88
805.76	58827.88
806.015	59661.88
806.269	60671.88
806.524	61302.88
806.778	61829.88
807.033	62259.88
807.287	63242.88
807.541	64018.88
807.796	64930.88
808.05	65842.88
808.304	66384.88
808.558	66763.88
808.812	67263.88
809.066	67731.88
809.32	68169.88
809.574	68872.88
809.828	69170.88
810.082	69662.88
810.336	70405.88
810.59	70985.88
810.844	71899.88
811.097	72904.88
811.351	73825.88
811.605	75166.88
811.858	76537.88
812.112	77649.88
812.365	78959.88
812.619	80333.88
812.872	81456.88
813.126	82614.88
813.379	83551.88
813.632	84892.88
813.885	85929.88
814.139	87031.88
814.392	88268.88
814.645	89865.88
814.898	91288.88
815.151	92931.88
815.404	94594.88
815.657	96537.88
815.91	97835.88
816.163	98999.88
816.416	100379.88
816.668	100845.88
816.921	101694.88
817.174	102146.88
817.426	102242.88
817.679	102122.88
817.931	101762.88
818.184	101808.88
818.436	102007.88
818.689	102172.88
818.941	102338.88
819.194	102926.88
819.446	102968.88
819.698	103609.88
819.95	103918.88
820.202	104463.88
820.455	104783.88
820.707	105260.88
820.959	105034.88
821.211	105180.88
821.462	105314.88
821.714	105183.88
821.966	104719.88
822.218	104317.88
822.47	103657.88
822.722	103430.88
822.973	103045.88
823.225	102618.88
823.476	102662.88
823.728	102390.88
823.979	102736.88
824.231	102755.88
824.482	103052.88
824.734	103196.88
824.985	103134.88
825.236	102833.88
825.487	102626.88
825.739	102213.88
825.99	101850.88
826.241	101688.88
826.492	101327.88
826.743	100697.88
826.994	100323.88
827.245	100035.88
827.496	99627.88
827.747	99622.88
827.997	99552.88
828.248	99676.88
828.499	99821.88
828.75	100012.88
829	99996.88
829.251	99814.88
829.501	99704.88
829.752	99170.88
830.002	98957.88
830.253	98366.88
830.503	97692.88
830.753	97072.88
831.004	96550.88
831.254	96192.88
831.504	96023.88
831.754	95687.88
832.004	95683.88
832.254	95647.88
832.504	95890.88
832.754	95703.88
833.004	95762.88
833.254	95418.88
833.504	95535.88
833.754	95253.88
834.003	94805.88
834.253	94460.88
834.503	93803.88
834.752	93476.88
835.002	92850.88
835.252	92493.88
835.501	92216.88
835.75	91983.88
836	91759.88
836.249	92037.88
836.499	91433.88
836.748	91693.88
836.997	91556.88
837.246	91951.88
837.495	91862.88
837.744	92466.88
837.993	93309.88
838.242	93576.88
838.491	93278.88
838.74	91923.88
838.989	91140.88
839.238	90358.88
839.487	89667.88
839.736	89135.88
839.984	88629.88
840.233	88138.88
840.482	87761.88
840.73	87354.88
840.979	87035.88
841.227	86748.88
841.476	86564.88
841.724	86380.88
841.972	85964.88
842.221	85832.88
842.469	85701.88
842.717	85092.88
842.965	85039.88
843.213	84964.88
843.461	84470.88
843.71	84255.88
843.958	83614.88
844.205	83789.88
844.453	83293.88
844.701	83284.88
844.949	83117.88
845.197	83093.88
845.445	83347.88
845.692	83682.88
845.94	83576.88
846.188	83386.88
846.435	83550.88
846.683	83145.88
846.93	82852.88
847.178	82536.88
847.425	81702.88
847.672	81026.88
847.92	80491.88
848.167	79756.88
848.414	78946.88
848.661	78478.88
848.908	78050.88
849.155	77704.88
849.402	77975.88
849.649	77882.88
849.896	78377.88
850.143	78791.88
850.39	78949.88
850.637	78918.88
850.884	78557.88
851.131	78763.88
851.377	78492.88
851.624	78286.88
851.87	77878.88
852.117	77568.88
852.364	76908.88
852.61	76864.88
852.856	76561.88
853.103	76236.88
853.349	75980.88
853.595	75776.88
853.842	75230.88
854.088	75220.88
854.334	75089.88
854.58	75016.88
854.826	74608.88
855.072	74177.88
855.318	73590.88
855.564	72879.88
855.81	72481.88
856.056	71862.88
856.302	71136.88
856.548	70745.88
856.793	70297.88
857.039	69907.88
857.285	69918.88
857.53	69631.88
857.776	69968.88
858.021	70038.88
858.267	70200.88
858.512	70391.88
858.758	70542.88
859.003	70689.88
859.248	70785.88
859.493	70474.88
859.739	70321.88
859.984	69904.88
860.229	69675.88
860.474	69217.88
860.719	68939.88
860.964	68593.88
861.209	68057.88
861.454	67811.88
861.699	67435.88
861.943	66971.88
862.188	66672.88
862.433	66318.88
862.678	66051.88
862.922	66154.88
863.167	65698.88
863.411	65641.88
863.656	65481.88
863.9	65362.88
864.145	65066.88
864.389	64613.88
864.634	64426.88
864.878	64140.88
865.122	64192.88
865.366	63987.88
865.61	63852.88
865.855	63598.88
866.099	63399.88
866.343	63388.88
866.587	63386.88
866.831	63289.88
867.074	63036.88
867.318	63096.88
867.562	63006.88
867.806	63212.88
868.05	62999.88
868.293	62702.88
868.537	62636.88
868.78	62491.88
869.024	62064.88
869.267	61510.88
869.511	61097.88
869.754	60668.88
869.998	60069.88
870.241	59510.88
870.484	59123.88
870.728	58769.88
870.971	58599.88
871.214	58265.88
871.457	57949.88
871.7	58061.88
871.943	57957.88
872.186	58114.88
872.429	58237.88
872.672	58172.88
872.915	58154.88
873.158	57908.88
873.4	58016.88
873.643	57889.88
873.886	57632.88
874.128	57325.88
874.371	57125.88
874.613	57175.88
874.856	57076.88
875.098	56634.88
875.341	56485.88
875.583	56284.88
875.825	56284.88
876.068	55931.88
876.31	55819.88
876.552	55220.88
876.794	54861.88
877.036	54202.88
877.278	53886.88
877.52	53714.88
877.762	53409.88
878.004	53475.88
878.246	53115.88
878.488	53034.88
878.73	53038.88
878.972	52979.88
879.213	53024.88
879.455	52977.88
879.697	52713.88
879.938	52742.88
880.18	52544.88
880.421	52449.88
880.663	52007.88
880.904	52216.88
881.145	52382.88
881.387	52547.88
881.628	52217.88
881.869	51949.88
882.11	51706.88
882.352	51496.88
882.593	51391.88
882.834	51455.88
883.075	51121.88
883.316	51036.88
883.557	50726.88
883.797	50568.88
884.038	50257.88
884.279	49610.88
884.52	48997.88
884.761	48689.88
885.001	48275.88
885.242	47975.88
885.482	47768.88
885.723	47348.88
885.963	47164.88
886.204	47061.88
886.444	46710.88
886.685	46610.88
886.925	46461.88
887.165	46152.88
887.405	45738.88
887.646	45831.88
887.886	45600.88
888.126	45790.88
888.366	45659.88
888.606	45632.88
888.846	45846.88
889.086	45827.88
889.326	46044.88
889.565	45658.88
889.805	45801.88
890.045	45610.88
890.285	45393.88
890.524	45494.88
890.764	45252.88
891.003	44873.88
891.243	44405.88
891.482	44044.88
891.722	43660.88
891.961	43353.88
892.201	43100.88
892.44	42967.88
892.679	42628.88
892.918	42591.88
893.158	42277.88
893.397	42362.88
893.636	42325.88
893.875	41956.88
894.114	42001.88
894.353	41760.88
894.592	41633.88
894.831	41507.88
895.069	41099.88
895.308	40922.88
895.547	40622.88
895.786	40558.88
896.024	40394.88
896.263	40145.88
896.501	40258.88
896.74	40120.88
896.978	40125.88
897.217	39992.88
897.455	39770.88
897.694	39781.88
897.932	39552.88
898.17	39581.88
898.408	39342.88
898.646	39306.88
898.885	38962.88
899.123	38720.88
899.361	38506.88
899.599	38399.88
899.837	38139.88
900.075	37914.88
900.312	37700.88
900.55	37344.88
900.788	36930.88
901.026	36744.88
901.263	36370.88
901.501	36148.88
901.739	35964.88
901.976	35843.88
902.214	35580.88
902.451	35435.88
902.689	35326.88
902.926	35238.88
903.163	35297.88
903.401	35310.88
903.638	35278.88
903.875	35152.88
904.112	35215.88
904.349	35117.88
904.586	35040.88
904.823	34828.88
905.06	34680.88
905.297	34475.88
905.534	34135.88
905.771	33887.88
906.008	33623.88
906.245	33593.88
906.481	33325.88
906.718	33193.88
906.955	33092.88
907.191	33010.88
907.428	32804.88
907.664	32553.88
907.901	32516.88
908.137	32291.88
908.374	32303.88
908.61	32019.88
908.846	31841.88
909.083	31586.88
909.319	31497.88
909.555	31372.88
909.791	31065.88
910.027	30955.88
910.263	30573.88
910.499	30412.88
910.735	30137.88
910.971	29963.88
911.207	29733.88
911.443	29703.88
911.678	29496.88
911.914	29412.88
912.15	29324.88
912.385	29486.88
912.621	29363.88
912.857	29229.88
913.092	29247.88
913.328	29124.88
913.563	29068.88
913.798	28998.88
914.034	29057.88
914.269	28990.88
914.504	28760.88
914.739	28660.88
914.975	28547.88
915.21	28306.88
915.445	28168.88
915.68	27740.88
915.915	27664.88
916.15	27342.88
916.384	26860.88
916.619	26651.88
916.854	26511.88
917.089	26456.88
917.324	26155.88
917.558	26018.88
917.793	25870.88
918.028	25711.88
918.262	25796.88
918.497	25642.88
918.731	25579.88
918.965	25612.88
919.2	25531.88
919.434	25457.88
919.668	25528.88
919.903	25483.88
920.137	25296.88
920.371	25069.88
920.605	25024.88
920.839	24793.88
921.073	24612.88
921.307	24447.88
921.541	24269.88
921.775	24039.88
922.009	24102.88
922.243	24091.88
922.476	23949.88
922.71	23979.88
922.944	23890.88
923.177	23893.88
923.411	23863.88
923.644	23794.88
923.878	23652.88
924.111	23485.88
924.345	23410.88
924.578	23420.88
924.811	23267.88
925.045	23081.88
925.278	22977.88
925.511	22849.88
925.744	22563.88
925.977	22348.88
926.21	22380.88
926.443	22032.88
926.676	21897.88
926.909	21846.88
927.142	21496.88
927.375	21447.88
927.608	21308.88
927.841	21336.88
928.073	21149.88
928.306	21058.88
928.539	21082.88
928.771	21024.88
929.004	20983.88
929.236	21022.88
929.469	21046.88
929.701	20962.88
929.933	21009.88
930.166	21006.88
930.398	20984.88
930.63	20871.88
930.862	20844.88
931.094	20726.88
931.327	20502.88
931.559	20457.88
931.791	20187.88
932.023	20222.88
932.255	20078.88
932.486	19872.88
932.718	19651.88
932.95	19591.88
933.182	19565.88
933.413	19419.88
933.645	19340.88
933.877	19296.88
934.108	19157.88
934.34	19045.88
934.571	18982.88
934.803	18985.88
935.034	18829.88
935.265	18777.88
935.497	18738.88
935.728	18577.88
935.959	18584.88
936.19	18496.88
936.422	18375.88
936.653	18230.88
936.884	18261.88
937.115	18078.88
937.346	17787.88
937.577	17774.88
937.807	17698.88
938.038	17640.88
938.269	17637.88
938.5	17567.88
938.73	17471.88
938.961	17394.88
939.192	17406.88
939.422	17418.88
939.653	17449.88
939.883	17299.88
940.114	17305.88
940.344	17295.88
940.574	17240.88
940.805	17080.88
941.035	16933.88
941.265	16808.88
941.495	16820.88
941.726	16635.88
941.956	16600.88
942.186	16414.88
942.416	16290.88
942.646	16035.88
942.876	16053.88
943.105	15803.88
943.335	15773.88
943.565	15612.88
943.795	15530.88
944.024	15357.88
944.254	15250.88
944.484	15218.88
944.713	15159.88
944.943	15062.88
945.172	14991.88
945.402	14888.88
945.631	14858.88
945.86	14932.88
946.09	14863.88
946.319	14871.88
946.548	14769.88
946.777	14778.88
947.006	14708.88
947.235	14669.88
947.465	14535.88
947.694	14398.88
947.922	14295.88
948.151	14308.88
948.38	14123.88
948.609	13993.88
948.838	13904.88
949.067	13810.88
949.295	13723.88
949.524	13663.88
949.752	13565.88
949.981	13466.88
950.21	13401.88
950.438	13234.88
950.666	13170.88
950.895	13121.88
951.123	13073.88
951.351	12909.88
951.58	12877.88
951.808	12853.88
952.036	12776.88
952.264	12704.88
952.492	12658.88
952.72	12664.88
952.948	12523.88
953.176	12473.88
953.404	12336.88
953.632	12271.88
953.86	12114.88
954.088	12012.88
954.315	11950.88
954.543	11854.88
954.771	11790.88
954.998	11767.88
955.226	11800.88
955.453	11637.88
955.681	11584.88
955.908	11551.88
956.135	11503.88
956.363	11443.88
956.59	11494.88
956.817	11481.88
957.045	11372.88
957.272	11410.88
957.499	11218.88
957.726	11172.88
957.953	11243.88
958.18	11140.88
958.407	11041.88
958.634	11012.88
958.861	10960.88
959.087	10892.88
959.314	10821.88
959.541	10681.88
959.767	10691.88
959.994	10465.88
960.221	10515.88
960.447	10379.88
960.674	10357.88
960.9	10199.88
961.127	10175.88
961.353	10088.88
961.579	10026.88
961.806	9988.88
962.032	9953.88
962.258	9861.88
962.484	9810.88
962.71	9773.88
962.936	9804.88
963.162	9730.88
963.388	9701.88
963.614	9742.88
963.84	9697.88
964.066	9655.88
964.292	9632.88
964.518	9610.88
964.743	9543.88
964.969	9503.88
965.195	9511.88
965.42	9418.88
965.646	9332.88
965.871	9341.88
966.097	9172.88
966.322	9188.88
966.547	9211.88
966.773	9159.88
966.998	9095.88
967.223	8996.88
967.448	8954.88
967.674	8950.88
967.899	8911.88
968.124	8804.88
968.349	8699.88
968.574	8682.88
968.799	8680.88
969.024	8554.88
969.248	8612.88
969.473	8501.88
969.698	8478.88
969.923	8413.88
970.147	8293.88
970.372	8348.88
970.596	8255.88
970.821	8186.88
971.046	8203.88
971.27	8123.88
971.494	8068.88
971.719	7978.88
971.943	8004.88
972.167	7902.88
972.392	7871.88
972.616	7793.88
972.84	7758.88
973.064	7735.88
973.288	7683.88
973.512	7632.88
973.736	7631.88
973.96	7624.88
974.184	7531.88
974.408	7498.88
974.631	7498.88
974.855	7518.88
975.079	7419.88
975.303	7459.88
975.526	7413.88
975.75	7342.88
975.973	7344.88
976.197	7284.88
976.42	7224.88
976.644	7239.88
976.867	7184.88
977.09	7156.88
977.313	7109.88
977.537	7013.88
977.76	7004.88
977.983	6953.88
978.206	6925.88
978.429	6821.88
978.652	6797.88
978.875	6789.88
979.098	6731.88
979.321	6720.88
979.544	6637.88
979.767	6560.88
979.989	6510.88
980.212	6491.88
980.435	6461.88
980.657	6352.88
980.88	6341.88
981.102	6380.88
981.325	6368.88
981.547	6311.88
981.77	6212.88
981.992	6235.88
982.214	6253.88
982.437	6213.88
982.659	6152.88
982.881	6130.88
983.103	6098.88
983.325	6010.88
983.547	6065.88
983.769	5963.88
983.991	5981.88
984.213	5952.88
984.435	5957.88
984.657	5887.88
984.879	5903.88
985.1	5869.88
985.322	5778.88
985.544	5743.88
985.765	5751.88
985.987	5706.88
986.208	5678.88
986.43	5674.88
986.651	5659.88
986.873	5582.88
987.094	5591.88
987.315	5548.88
987.536	5485.88
987.758	5471.88
987.979	5407.88
988.2	5414.88
988.421	5328.88
988.642	5316.88
988.863	5285.88
989.084	5245.88
989.305	5210.88
989.526	5149.88
989.747	5116.88
989.967	5082.88
990.188	5116.88
990.409	5055.88
990.629	4963.88
990.85	5007.88
991.071	4956.88
991.291	4926.88
991.512	4914.88
991.732	4824.88
991.952	4866.88
992.173	4816.88
992.393	4862.88
992.613	4799.88
992.834	4760.88
993.054	4802.88
993.274	4719.88
993.494	4723.88
993.714	4706.88
993.934	4720.88
994.154	4715.88
994.374	4695.88
994.594	4610.88
994.813	4632.88
995.033	4645.88
995.253	4576.88
995.473	4529.88
995.692	4558.88
995.912	4524.88
996.131	4458.88
996.351	4439.88
996.57	4391.88
996.79	4344.88
997.009	4334.88
997.228	4326.88
997.448	4258.88
997.667	4243.88
997.886	4163.88
998.105	4153.88
998.325	4083.88
998.544	4075.88
998.763	4060.88
998.982	4056.88
999.201	3984.88
999.419	3970.88
999.638	3966.88
999.857	3917.88
1000.076	4000.88
1000.295	3902.88
1000.513	3901.88
1000.732	3917.88
1000.95	3813.88
1001.169	3860.88
1001.388	3829.88
1001.606	3815.88
1001.824	3807.88
1002.043	3760.88
1002.261	3761.88
1002.479	3706.88
1002.698	3716.88
1002.916	3744.88
1003.134	3694.88
1003.352	3647.88
1003.57	3679.88
1003.788	3691.88
1004.006	3596.88
1004.224	3645.88
1004.442	3656.88
1004.66	3616.88
1004.878	3606.88
1005.095	3551.88
1005.313	3573.88
1005.531	3546.88
1005.748	3522.88
1005.966	3544.88
1006.184	3493.88
1006.401	3446.88
1006.618	3486.88
1006.836	3433.88
1007.053	3405.88
1007.271	3466.88
1007.488	3409.88
1007.705	3402.88
1007.922	3410.88
1008.139	3388.88
1008.357	3405.88
1008.574	3405.88
1008.791	3418.88
1009.008	3433.88
1009.225	3445.88
1009.441	3427.88
1009.658	3490.88
1009.875	3447.88
1010.092	3478.88
1010.309	3423.88
1010.525	3375.88
1010.742	3400.88
1010.958	3320.88
1011.175	3292.88
1011.391	3214.88
1011.608	3243.88
1011.824	3229.88
1012.041	3182.88
1012.257	3135.88
1012.473	3117.88
1012.689	3113.88
1012.906	3086.88
1013.122	3076.88
1013.338	3059.88
1013.554	3089.88
1013.77	3071.88
1013.986	3074.88
1014.202	3100.88
1014.418	3139.88
1014.634	3225.88
1014.849	3244.88
1015.065	3255.88
1015.281	3282.88
1015.496	3275.88
1015.712	3249.88
1015.928	3186.88
1016.143	3115.88
1016.359	3107.88
1016.574	3012.88
1016.79	2960.88
1017.005	2933.88
1017.22	2838.88
1017.435	2760.88
1017.651	2754.88
1017.866	2675.88
1018.081	2661.88
1018.296	2606.88
1018.511	2577.88
1018.726	2590.88
1018.941	2537.88
1019.156	2499.88
1019.371	2526.88
1019.586	2507.88
1019.801	2482.88
1020.015	2415.88
1020.23	2450.88
1020.445	2409.88
1020.659	2387.88
1020.874	2345.88
1021.088	2360.88
1021.303	2314.88
1021.517	2257.88
1021.732	2261.88
1021.946	2200.88
1022.16	2195.88
1022.375	2136.88
1022.589	2114.88
1022.803	2100.88
1023.017	2047.88
1023.231	2009.88
1023.445	2010.88
1023.659	1960.88
1023.873	1917.88
1024.087	1886.88
1024.301	1837.88
1024.515	1807.88
1024.729	1814.88
1024.942	1739.88
1025.156	1744.88
1025.37	1685.88
1025.583	1701.88
1025.797	1629.88
1026.01	1621.88
1026.224	1578.88
1026.437	1567.88
1026.651	1480.88
1026.864	1428.88
1027.077	1424.88
1027.291	1375.88
1027.504	1350.88
1027.717	1307.88
1027.93	1281.88
1028.143	1272.88
1028.356	1199.88
1028.569	1138.88
1028.782	1073.88
1028.995	-1.12
1029.208	-1.12
1029.421	-2.12
1029.634	-4.12
