Data from QEP037381__378__15-45-26-566.txt Node

Date: Mon Mar 14 15:45:26 EDT 2022
User: dcclab
Spectrometer: QEP03738
Trigger mode: 4
Integration Time (sec): 2.500000E0
Scans to average: 1
Electric dark correction enabled: true
Nonlinearity correction enabled: false
Boxcar width: 0
XAxis mode: Wavelengths
Number of Pixels in Spectrum: 1044
>>>>>Begin Spectral Data<<<<<
783.959	13
784.218	4
784.476	-3
784.734	-7
784.992	276
785.251	260
785.509	265
785.767	256
786.025	247
786.283	250
786.541	249
786.798	255
787.056	245
787.314	225
787.572	245
787.83	239
788.087	240
788.345	233
788.602	239
788.86	231
789.117	247
789.375	228
789.632	238
789.89	229
790.147	254
790.404	250
790.661	251
790.919	278
791.176	248
791.433	263
791.69	278
791.947	269
792.204	256
792.461	289
792.718	297
792.974	283
793.231	297
793.488	329
793.745	318
794.001	342
794.258	361
794.514	355
794.771	385
795.027	383
795.284	393
795.54	435
795.797	454
796.053	504
796.309	544
796.565	585
796.822	647
797.078	715
797.334	841
797.59	1004
797.846	1256
798.102	1582
798.358	2170
798.614	3103
798.869	4487
799.125	6558
799.381	9549
799.637	13611
799.892	18413
800.148	23785
800.403	29007
800.659	33326
800.914	36954
801.17	39273
801.425	40988
801.68	42020
801.936	42919
802.191	43759
802.446	44816
802.701	45803
802.957	46689
803.212	47667
803.467	48678
803.722	49606
803.977	50738
804.232	51596
804.486	52680
804.741	53574
804.996	54748
805.251	55758
805.505	56617
805.76	57610
806.015	58393
806.269	59213
806.524	59927
806.778	60541
807.033	61022
807.287	61607
807.541	62650
807.796	63468
808.05	64258
808.304	64559
808.558	65037
808.812	65702
809.066	66291
809.32	66591
809.574	67065
809.828	67504
810.082	68057
810.336	68523
810.59	69219
810.844	70195
811.097	70875
811.351	71950
811.605	72951
811.858	74162
812.112	75579
812.365	76763
812.619	77993
812.872	79025
813.126	80315
813.379	81340
813.632	82384
813.885	83424
814.139	84650
814.392	85908
814.645	87441
814.898	88822
815.151	90388
815.404	92298
815.657	93856
815.91	95308
816.163	96542
816.416	97510
816.668	97973
816.921	98898
817.174	99054
817.426	99013
817.679	99073
817.931	99088
818.184	99035
818.436	98971
818.689	99002
818.941	99274
819.194	99669
819.446	100058
819.698	100354
819.95	101026
820.202	101256
820.455	101622
820.707	101836
820.959	102209
821.211	101943
821.462	101812
821.714	101793
821.966	101259
822.218	100814
822.47	100280
822.722	99846
822.973	99530
823.225	99292
823.476	99247
823.728	99395
823.979	99229
824.231	99240
824.482	99449
824.734	99530
824.985	99457
825.236	99067
825.487	99249
825.739	98650
825.99	98296
826.241	98132
826.492	97559
826.743	97179
826.994	96878
827.245	96468
827.496	96325
827.747	95858
827.997	96154
828.248	96199
828.499	95963
828.75	96183
829	96259
829.251	96184
829.501	96112
829.752	95323
830.002	95302
830.253	94512
830.503	94016
830.753	93393
831.004	92953
831.254	92419
831.504	92267
831.754	91882
832.004	92152
832.254	92240
832.504	91989
832.754	92322
833.004	92073
833.254	91668
833.504	91492
833.754	91158
834.003	90994
834.253	90837
834.503	90077
834.752	89402
835.002	89150
835.252	88714
835.501	88258
835.75	87988
836	87925
836.249	87869
836.499	87876
836.748	87463
836.997	87687
837.246	87722
837.495	88114
837.744	88559
837.993	89038
838.242	89403
838.491	88970
838.74	88174
838.989	86902
839.238	86268
839.487	85611
839.736	85148
839.984	84554
840.233	84090
840.482	83696
840.73	83588
840.979	83048
841.227	82945
841.476	82513
841.724	82189
841.972	82293
842.221	81759
842.469	81527
842.717	81121
842.965	80888
843.213	80573
843.461	80387
843.71	79974
843.958	79679
844.205	79750
844.453	79433
844.701	79129
844.949	79341
845.197	79235
845.445	78986
845.692	79020
845.94	79223
846.188	79169
846.435	78903
846.683	78702
846.93	78603
847.178	78139
847.425	77562
847.672	76889
847.92	76181
848.167	75852
848.414	74678
848.661	74497
848.908	74049
849.155	73831
849.402	73461
849.649	73674
849.896	73969
850.143	74370
850.39	74736
850.637	74659
850.884	74462
851.131	74358
851.377	74102
851.624	73747
851.87	73431
852.117	72857
852.364	72639
852.61	72363
852.856	72097
853.103	71889
853.349	71627
853.595	71424
853.842	70769
854.088	70659
854.334	70910
854.58	70503
854.826	69997
855.072	69687
855.318	69143
855.564	68545
855.81	68041
856.056	67611
856.302	66799
856.548	66463
856.793	65956
857.039	65551
857.285	65558
857.53	65303
857.776	65350
858.021	65572
858.267	66059
858.512	65889
858.758	66006
859.003	65981
859.248	66010
859.493	65967
859.739	65604
859.984	65350
860.229	65110
860.474	64546
860.719	64226
860.964	63876
861.209	63492
861.454	62950
861.699	62692
861.943	62225
862.188	62043
862.433	61825
862.678	61620
862.922	61570
863.167	61304
863.411	61099
863.656	60809
863.9	60530
864.145	60223
864.389	60033
864.634	59869
864.878	59711
865.122	59311
865.366	59040
865.61	58983
865.855	58693
866.099	58718
866.343	58431
866.587	58405
866.831	58594
867.074	58562
867.318	58374
867.562	58481
867.806	58335
868.05	58195
868.293	57951
868.537	57810
868.78	57640
869.024	57144
869.267	56853
869.511	56496
869.754	55833
869.998	55419
870.241	54893
870.484	54492
870.728	53871
870.971	53668
871.214	53382
871.457	53338
871.7	53325
871.943	53271
872.186	53375
872.429	53219
872.672	53158
872.915	53130
873.158	52895
873.4	52901
873.643	52798
873.886	52604
874.128	52475
874.371	52365
874.613	52187
874.856	51834
875.098	51707
875.341	51576
875.583	51295
875.825	51137
876.068	50910
876.31	50605
876.552	50204
876.794	49747
877.036	49392
877.278	48848
877.52	48963
877.762	48437
878.004	48360
878.246	48227
878.488	48288
878.73	48307
878.972	47948
879.213	47928
879.455	47770
879.697	47513
879.938	47490
880.18	47315
880.421	47170
880.663	47241
880.904	47297
881.145	47071
881.387	47109
881.628	47130
881.869	46847
882.11	46580
882.352	46590
882.593	46302
882.834	46041
883.075	46029
883.316	45821
883.557	45572
883.797	45417
884.038	44906
884.279	44463
884.52	43956
884.761	43604
885.001	43101
885.242	42850
885.482	42664
885.723	42168
885.963	42087
886.204	41870
886.444	41738
886.685	41623
886.925	41277
887.165	41204
887.405	40991
887.646	40924
887.886	40750
888.126	40779
888.366	40779
888.606	40701
888.846	40781
889.086	40826
889.326	40742
889.565	40628
889.805	40586
890.045	40544
890.285	40277
890.524	40317
890.764	40057
891.003	39769
891.243	39325
891.482	38891
891.722	38649
891.961	38455
892.201	38337
892.44	38119
892.679	37634
892.918	37633
893.158	37366
893.397	37316
893.636	37226
893.875	37030
894.114	36766
894.353	36859
894.592	36457
894.831	36422
895.069	36251
895.308	36128
895.547	35722
895.786	35514
896.024	35433
896.263	35466
896.501	35324
896.74	35235
896.978	35104
897.217	35064
897.455	34829
897.694	34978
897.932	34740
898.17	34738
898.408	34562
898.646	34398
898.885	34138
899.123	34092
899.361	33788
899.599	33463
899.837	33365
900.075	33222
900.312	32892
900.55	32563
900.788	32312
901.026	32025
901.263	31698
901.501	31381
901.739	31220
901.976	30959
902.214	30940
902.451	30734
902.689	30761
902.926	30717
903.163	30734
903.401	30598
903.638	30577
903.875	30507
904.112	30518
904.349	30405
904.586	30296
904.823	30207
905.06	29905
905.297	29750
905.534	29509
905.771	29217
906.008	29170
906.245	28896
906.481	28701
906.718	28516
906.955	28477
907.191	28212
907.428	28060
907.664	28085
907.901	27890
908.137	27716
908.374	27744
908.61	27565
908.846	27290
909.083	27170
909.319	26962
909.555	26778
909.791	26657
910.027	26478
910.263	26189
910.499	25921
910.735	25790
910.971	25659
911.207	25460
911.443	25318
911.678	25156
911.914	25095
912.15	25056
912.385	24957
912.621	24933
912.857	24932
913.092	24894
913.328	24791
913.563	24812
913.798	24687
914.034	24689
914.269	24567
914.504	24551
914.739	24269
914.975	24164
915.21	24082
915.445	23821
915.68	23702
915.915	23372
916.15	23165
916.384	22852
916.619	22624
916.854	22539
917.089	22267
917.324	22232
917.558	22081
917.793	21855
918.028	21782
918.262	21617
918.497	21652
918.731	21606
918.965	21652
919.2	21740
919.434	21523
919.668	21536
919.903	21502
920.137	21342
920.371	21297
920.605	21031
920.839	20896
921.073	20766
921.307	20570
921.541	20345
921.775	20302
922.009	20205
922.243	20094
922.476	20100
922.71	20125
922.944	19958
923.177	19931
923.411	20017
923.644	19904
923.878	19832
924.111	19710
924.345	19709
924.578	19445
924.811	19432
925.045	19406
925.278	19237
925.511	19042
925.744	18860
925.977	18767
926.21	18662
926.443	18454
926.676	18262
926.909	18114
927.142	18012
927.375	17788
927.608	17758
927.841	17664
928.073	17573
928.306	17563
928.539	17620
928.771	17481
929.004	17494
929.236	17499
929.469	17477
929.701	17556
929.933	17491
930.166	17387
930.398	17388
930.63	17308
930.862	17324
931.094	17216
931.327	17133
931.559	16976
931.791	16827
932.023	16685
932.255	16620
932.486	16416
932.718	16265
932.95	16271
933.182	16148
933.413	16066
933.645	15933
933.877	16035
934.108	15877
934.34	15819
934.571	15734
934.803	15688
935.034	15557
935.265	15625
935.497	15479
935.728	15367
935.959	15354
936.19	15324
936.422	15226
936.653	15055
936.884	14976
937.115	14888
937.346	14837
937.577	14711
937.807	14600
938.038	14528
938.269	14502
938.5	14484
938.73	14433
938.961	14408
939.192	14429
939.422	14334
939.653	14373
939.883	14382
940.114	14335
940.344	14292
940.574	14236
940.805	14080
941.035	13957
941.265	13903
941.495	13805
941.726	13727
941.956	13621
942.186	13562
942.416	13376
942.646	13246
942.876	13187
943.105	12989
943.335	12966
943.565	12853
943.795	12701
944.024	12644
944.254	12548
944.484	12556
944.713	12537
944.943	12440
945.172	12340
945.402	12233
945.631	12281
945.86	12262
946.09	12227
946.319	12177
946.548	12154
946.777	12220
947.006	12114
947.235	12019
947.465	11997
947.694	11912
947.922	11808
948.151	11798
948.38	11675
948.609	11499
948.838	11518
949.067	11374
949.295	11305
949.524	11244
949.752	11173
949.981	11040
950.21	10972
950.438	10979
950.666	10833
950.895	10874
951.123	10756
951.351	10662
951.58	10604
951.808	10488
952.036	10502
952.264	10449
952.492	10410
952.72	10345
952.948	10304
953.176	10216
953.404	10099
953.632	10107
953.86	9929
954.088	9914
954.315	9837
954.543	9762
954.771	9751
954.998	9635
955.226	9600
955.453	9592
955.681	9509
955.908	9468
956.135	9570
956.363	9490
956.59	9459
956.817	9436
957.045	9405
957.272	9289
957.499	9266
957.726	9194
957.953	9209
958.18	9215
958.407	9117
958.634	9114
958.861	8990
959.087	8981
959.314	8893
959.541	8785
959.767	8776
959.994	8685
960.221	8592
960.447	8543
960.674	8509
960.9	8372
961.127	8329
961.353	8282
961.579	8236
961.806	8238
962.032	8170
962.258	8075
962.484	8120
962.71	8060
962.936	7993
963.162	8037
963.388	8003
963.614	7981
963.84	7890
964.066	7959
964.292	7911
964.518	7821
964.743	7791
964.969	7713
965.195	7755
965.42	7672
965.646	7674
965.871	7620
966.097	7556
966.322	7523
966.547	7447
966.773	7456
966.998	7360
967.223	7330
967.448	7323
967.674	7299
967.899	7210
968.124	7175
968.349	7158
968.574	7091
968.799	7030
969.024	6997
969.248	6988
969.473	6920
969.698	6896
969.923	6806
970.147	6797
970.372	6760
970.596	6767
970.821	6706
971.046	6653
971.27	6613
971.494	6598
971.719	6544
971.943	6471
972.167	6449
972.392	6408
972.616	6399
972.84	6353
973.064	6285
973.288	6245
973.512	6173
973.736	6186
973.96	6183
974.184	6086
974.408	6181
974.631	6095
974.855	6090
975.079	6082
975.303	6022
975.526	6025
975.75	5922
975.973	5977
976.197	5965
976.42	5819
976.644	5847
976.867	5812
977.09	5798
977.313	5679
977.537	5690
977.76	5657
977.983	5632
978.206	5566
978.429	5535
978.652	5524
978.875	5432
979.098	5382
979.321	5408
979.544	5356
979.767	5323
979.989	5259
980.212	5218
980.435	5171
980.657	5162
980.88	5197
981.102	5089
981.325	5071
981.547	5079
981.77	5043
981.992	5033
982.214	4996
982.437	4941
982.659	4952
982.881	4898
983.103	4857
983.325	4881
983.547	4829
983.769	4854
983.991	4809
984.213	4759
984.435	4770
984.657	4703
984.879	4765
985.1	4680
985.322	4671
985.544	4628
985.765	4624
985.987	4529
986.208	4589
986.43	4547
986.651	4537
986.873	4482
987.094	4462
987.315	4445
987.536	4375
987.758	4356
987.979	4366
988.2	4336
988.421	4285
988.642	4257
988.863	4214
989.084	4187
989.305	4159
989.526	4124
989.747	4150
989.967	4142
990.188	4059
990.409	4043
990.629	4023
990.85	3988
991.071	3942
991.291	3950
991.512	3903
991.732	3938
991.952	3907
992.173	3806
992.393	3867
992.613	3815
992.834	3850
993.054	3808
993.274	3775
993.494	3812
993.714	3771
993.934	3758
994.154	3728
994.374	3749
994.594	3709
994.813	3683
995.033	3671
995.253	3685
995.473	3648
995.692	3617
995.912	3590
996.131	3581
996.351	3509
996.57	3511
996.79	3498
997.009	3427
997.228	3470
997.448	3365
997.667	3347
997.886	3327
998.105	3314
998.325	3247
998.544	3238
998.763	3196
998.982	3221
999.201	3156
999.419	3140
999.638	3127
999.857	3130
1000.076	3124
1000.295	3082
1000.513	3104
1000.732	3054
1000.95	3040
1001.169	3076
1001.388	3066
1001.606	3000
1001.824	3016
1002.043	2992
1002.261	2997
1002.479	2975
1002.698	2934
1002.916	2934
1003.134	2975
1003.352	2880
1003.57	2895
1003.788	2913
1004.006	2904
1004.224	2855
1004.442	2859
1004.66	2842
1004.878	2814
1005.095	2819
1005.313	2827
1005.531	2789
1005.748	2787
1005.966	2870
1006.184	2772
1006.401	2782
1006.618	2711
1006.836	2713
1007.053	2715
1007.271	2728
1007.488	2713
1007.705	2732
1007.922	2727
1008.139	2731
1008.357	2743
1008.574	2704
1008.791	2750
1009.008	2745
1009.225	2759
1009.441	2830
1009.658	2842
1009.875	2841
1010.092	2817
1010.309	2825
1010.525	2773
1010.742	2761
1010.958	2693
1011.175	2659
1011.391	2643
1011.608	2606
1011.824	2599
1012.041	2585
1012.257	2584
1012.473	2554
1012.689	2519
1012.906	2522
1013.122	2491
1013.338	2496
1013.554	2504
1013.77	2494
1013.986	2512
1014.202	2551
1014.418	2599
1014.634	2651
1014.849	2696
1015.065	2715
1015.281	2714
1015.496	2693
1015.712	2701
1015.928	2654
1016.143	2583
1016.359	2513
1016.574	2450
1016.79	2416
1017.005	2380
1017.22	2321
1017.435	2260
1017.651	2234
1017.866	2196
1018.081	2135
1018.296	2082
1018.511	2076
1018.726	2072
1018.941	2037
1019.156	2022
1019.371	2001
1019.586	2034
1019.801	1985
1020.015	2021
1020.23	1979
1020.445	1980
1020.659	1936
1020.874	1911
1021.088	1863
1021.303	1812
1021.517	1806
1021.732	1789
1021.946	1773
1022.16	1772
1022.375	1718
1022.589	1674
1022.803	1648
1023.017	1608
1023.231	1608
1023.445	1592
1023.659	1510
1023.873	1527
1024.087	1480
1024.301	1461
1024.515	1448
1024.729	1429
1024.942	1367
1025.156	1375
1025.37	1353
1025.583	1332
1025.797	1283
1026.01	1293
1026.224	1259
1026.437	1218
1026.651	1173
1026.864	1162
1027.077	1136
1027.291	1098
1027.504	1078
1027.717	1027
1027.93	1019
1028.143	979
1028.356	979
1028.569	927
1028.782	860
1028.995	0
1029.208	-6
1029.421	2
1029.634	-3
