Data from QEP037381__363__15-44-49-065.txt Node

Date: Mon Mar 14 15:44:49 EDT 2022
User: dcclab
Spectrometer: QEP03738
Trigger mode: 4
Integration Time (sec): 2.500000E0
Scans to average: 1
Electric dark correction enabled: true
Nonlinearity correction enabled: false
Boxcar width: 0
XAxis mode: Wavelengths
Number of Pixels in Spectrum: 1044
>>>>>Begin Spectral Data<<<<<
783.959	13.38
784.218	-3.62
784.476	-1.62
784.734	0.38
784.992	286.38
785.251	268.38
785.509	263.38
785.767	246.38
786.025	250.38
786.283	252.38
786.541	262.38
786.798	254.38
787.056	243.38
787.314	226.38
787.572	246.38
787.83	233.38
788.087	228.38
788.345	242.38
788.602	235.38
788.86	246.38
789.117	238.38
789.375	218.38
789.632	240.38
789.89	237.38
790.147	257.38
790.404	244.38
790.661	256.38
790.919	267.38
791.176	246.38
791.433	265.38
791.69	273.38
791.947	267.38
792.204	255.38
792.461	283.38
792.718	276.38
792.974	277.38
793.231	285.38
793.488	313.38
793.745	312.38
794.001	320.38
794.258	345.38
794.514	336.38
794.771	363.38
795.027	368.38
795.284	380.38
795.54	424.38
795.797	433.38
796.053	476.38
796.309	507.38
796.565	568.38
796.822	619.38
797.078	701.38
797.334	803.38
797.59	938.38
797.846	1189.38
798.102	1525.38
798.358	2054.38
798.614	2884.38
798.869	4246.38
799.125	6205.38
799.381	9108.38
799.637	12903.38
799.892	17582.38
800.148	22599.38
800.403	27523.38
800.659	31659.38
800.914	34974.38
801.17	37318.38
801.425	38662.38
801.68	39649.38
801.936	40477.38
802.191	41519.38
802.446	42311.38
802.701	43360.38
802.957	44225.38
803.212	45159.38
803.467	45921.38
803.722	46947.38
803.977	47869.38
804.232	48745.38
804.486	49731.38
804.741	50873.38
804.996	51532.38
805.251	52777.38
805.505	53583.38
805.76	54504.38
806.015	55322.38
806.269	56008.38
806.524	56747.38
806.778	57248.38
807.033	57646.38
807.287	58224.38
807.541	59115.38
807.796	60200.38
808.05	60873.38
808.304	61451.38
808.558	61781.38
808.812	62241.38
809.066	62795.38
809.32	63118.38
809.574	63524.38
809.828	63927.38
810.082	64377.38
810.336	64879.38
810.59	65574.38
810.844	66487.38
811.097	67201.38
811.351	68308.38
811.605	69209.38
811.858	70443.38
812.112	71628.38
812.365	72696.38
812.619	73837.38
812.872	75003.38
813.126	75948.38
813.379	77063.38
813.632	78247.38
813.885	79217.38
814.139	80328.38
814.392	81467.38
814.645	82668.38
814.898	84369.38
815.151	85870.38
815.404	87524.38
815.657	89125.38
815.91	90234.38
816.163	91345.38
816.416	92286.38
816.668	93146.38
816.921	93800.38
817.174	94151.38
817.426	94305.38
817.679	94310.38
817.931	94040.38
818.184	94148.38
818.436	94386.38
818.689	94212.38
818.941	94424.38
819.194	94572.38
819.446	94812.38
819.698	95402.38
819.95	95871.38
820.202	96229.38
820.455	96563.38
820.707	96885.38
820.959	97006.38
821.211	97043.38
821.462	96809.38
821.714	96720.38
821.966	96439.38
822.218	95935.38
822.47	95413.38
822.722	95065.38
822.973	94851.38
823.225	94531.38
823.476	94664.38
823.728	94690.38
823.979	94673.38
824.231	94495.38
824.482	94650.38
824.734	94511.38
824.985	94517.38
825.236	94711.38
825.487	94297.38
825.739	94104.38
825.99	93806.38
826.241	93202.38
826.492	93022.38
826.743	92477.38
826.994	92287.38
827.245	91896.38
827.496	91532.38
827.747	91432.38
827.997	91577.38
828.248	91591.38
828.499	91616.38
828.75	91433.38
829	91658.38
829.251	91660.38
829.501	91339.38
829.752	90882.38
830.002	90770.38
830.253	90139.38
830.503	89497.38
830.753	89015.38
831.004	88412.38
831.254	88210.38
831.504	87926.38
831.754	87792.38
832.004	87377.38
832.254	87628.38
832.504	87878.38
832.754	88083.38
833.004	87813.38
833.254	87505.38
833.504	87174.38
833.754	87066.38
834.003	86734.38
834.253	86494.38
834.503	85973.38
834.752	85225.38
835.002	84885.38
835.252	84690.38
835.501	84459.38
835.75	84100.38
836	84145.38
836.249	84034.38
836.499	83818.38
836.748	83556.38
836.997	83561.38
837.246	83886.38
837.495	84221.38
837.744	84575.38
837.993	85048.38
838.242	85441.38
838.491	85068.38
838.74	84208.38
838.989	83312.38
839.238	82335.38
839.487	81697.38
839.736	81210.38
839.984	80709.38
840.233	80307.38
840.482	80096.38
840.73	79744.38
840.979	79488.38
841.227	79127.38
841.476	78895.38
841.724	78654.38
841.972	78323.38
842.221	78268.38
842.469	77941.38
842.717	77495.38
842.965	77502.38
843.213	77078.38
843.461	76813.38
843.71	76569.38
843.958	76350.38
844.205	76138.38
844.453	75935.38
844.701	75769.38
844.949	75482.38
845.197	75461.38
845.445	75446.38
845.692	75664.38
845.94	75720.38
846.188	75721.38
846.435	75493.38
846.683	75441.38
846.93	75041.38
847.178	74811.38
847.425	74009.38
847.672	73534.38
847.92	73096.38
848.167	72204.38
848.414	71651.38
848.661	71163.38
848.908	70898.38
849.155	70584.38
849.402	70554.38
849.649	70443.38
849.896	70788.38
850.143	71215.38
850.39	71566.38
850.637	71658.38
850.884	71220.38
851.131	71320.38
851.377	71011.38
851.624	70749.38
851.87	70548.38
852.117	69967.38
852.364	69672.38
852.61	69475.38
852.856	69238.38
853.103	68759.38
853.349	68709.38
853.595	68522.38
853.842	67949.38
854.088	67839.38
854.334	67759.38
854.58	67607.38
854.826	67252.38
855.072	66891.38
855.318	66353.38
855.564	65812.38
855.81	65166.38
856.056	64902.38
856.302	64209.38
856.548	63757.38
856.793	63490.38
857.039	62972.38
857.285	62592.38
857.53	62738.38
857.776	62683.38
858.021	62970.38
858.267	63145.38
858.512	63205.38
858.758	63282.38
859.003	63266.38
859.248	63317.38
859.493	63060.38
859.739	63032.38
859.984	62841.38
860.229	62527.38
860.474	61865.38
860.719	61615.38
860.964	61227.38
861.209	60815.38
861.454	60588.38
861.699	60159.38
861.943	59702.38
862.188	59541.38
862.433	59384.38
862.678	59115.38
862.922	58912.38
863.167	58912.38
863.411	58686.38
863.656	58527.38
863.9	57972.38
864.145	57954.38
864.389	57649.38
864.634	57390.38
864.878	57320.38
865.122	56947.38
865.366	56873.38
865.61	56609.38
865.855	56509.38
866.099	56229.38
866.343	56227.38
866.587	56062.38
866.831	56194.38
867.074	56020.38
867.318	56029.38
867.562	56182.38
867.806	55965.38
868.05	55897.38
868.293	55742.38
868.537	55543.38
868.78	55314.38
869.024	54937.38
869.267	54656.38
869.511	53991.38
869.754	53802.38
869.998	53181.38
870.241	52734.38
870.484	52382.38
870.728	52046.38
870.971	51554.38
871.214	51296.38
871.457	51409.38
871.7	51317.38
871.943	51329.38
872.186	51216.38
872.429	51311.38
872.672	51208.38
872.915	50955.38
873.158	50920.38
873.4	50950.38
873.643	50838.38
873.886	50595.38
874.128	50349.38
874.371	50308.38
874.613	50157.38
874.856	49844.38
875.098	49802.38
875.341	49504.38
875.583	49394.38
875.825	49303.38
876.068	48971.38
876.31	48751.38
876.552	48273.38
876.794	47744.38
877.036	47409.38
877.278	47092.38
877.52	46990.38
877.762	46694.38
878.004	46507.38
878.246	46489.38
878.488	46467.38
878.73	46318.38
878.972	46299.38
879.213	46019.38
879.455	46075.38
879.697	45984.38
879.938	45873.38
880.18	45585.38
880.421	45406.38
880.663	45395.38
880.904	45464.38
881.145	45376.38
881.387	45553.38
881.628	45422.38
881.869	45170.38
882.11	44985.38
882.352	44714.38
882.593	44505.38
882.834	44369.38
883.075	44212.38
883.316	44160.38
883.557	44099.38
883.797	43629.38
884.038	43316.38
884.279	42755.38
884.52	42402.38
884.761	41915.38
885.001	41648.38
885.242	41169.38
885.482	40971.38
885.723	40765.38
885.963	40605.38
886.204	40418.38
886.444	40291.38
886.685	40239.38
886.925	39705.38
887.165	39578.38
887.405	39428.38
887.646	39411.38
887.886	39253.38
888.126	39177.38
888.366	39178.38
888.606	39220.38
888.846	39225.38
889.086	39340.38
889.326	39366.38
889.565	39265.38
889.805	39035.38
890.045	38984.38
890.285	38815.38
890.524	38922.38
890.764	38627.38
891.003	38330.38
891.243	37958.38
891.482	37516.38
891.722	37316.38
891.961	37113.38
892.201	37007.38
892.44	36475.38
892.679	36362.38
892.918	36298.38
893.158	36089.38
893.397	36001.38
893.636	35854.38
893.875	35843.38
894.114	35614.38
894.353	35565.38
894.592	35328.38
894.831	35168.38
895.069	34994.38
895.308	34814.38
895.547	34583.38
895.786	34324.38
896.024	34208.38
896.263	34151.38
896.501	34028.38
896.74	34067.38
896.978	33922.38
897.217	33966.38
897.455	33842.38
897.694	33574.38
897.932	33602.38
898.17	33481.38
898.408	33345.38
898.646	33154.38
898.885	33012.38
899.123	32909.38
899.361	32703.38
899.599	32221.38
899.837	32091.38
900.075	31874.38
900.312	31715.38
900.55	31366.38
900.788	31105.38
901.026	30949.38
901.263	30609.38
901.501	30270.38
901.739	30130.38
901.976	30007.38
902.214	29847.38
902.451	29706.38
902.689	29674.38
902.926	29518.38
903.163	29561.38
903.401	29603.38
903.638	29512.38
903.875	29352.38
904.112	29434.38
904.349	29451.38
904.586	29348.38
904.823	29130.38
905.06	28967.38
905.297	28645.38
905.534	28515.38
905.771	28234.38
906.008	28123.38
906.245	27922.38
906.481	27741.38
906.718	27573.38
906.955	27255.38
907.191	27274.38
907.428	27252.38
907.664	27045.38
907.901	26886.38
908.137	26790.38
908.374	26607.38
908.61	26697.38
908.846	26453.38
909.083	26196.38
909.319	26074.38
909.555	26038.38
909.791	25720.38
910.027	25565.38
910.263	25227.38
910.499	25214.38
910.735	24977.38
910.971	24757.38
911.207	24730.38
911.443	24443.38
911.678	24462.38
911.914	24224.38
912.15	24176.38
912.385	24171.38
912.621	24058.38
912.857	24099.38
913.092	23933.38
913.328	24008.38
913.563	23918.38
913.798	23883.38
914.034	23806.38
914.269	23752.38
914.504	23685.38
914.739	23580.38
914.975	23373.38
915.21	23364.38
915.445	23083.38
915.68	22796.38
915.915	22610.38
916.15	22437.38
916.384	22219.38
916.619	21823.38
916.854	21854.38
917.089	21637.38
917.324	21504.38
917.558	21314.38
917.793	21114.38
918.028	21041.38
918.262	21064.38
918.497	21031.38
918.731	20934.38
918.965	20839.38
919.2	20859.38
919.434	20872.38
919.668	20829.38
919.903	20725.38
920.137	20621.38
920.371	20576.38
920.605	20500.38
920.839	20260.38
921.073	20015.38
921.307	19977.38
921.541	19769.38
921.775	19568.38
922.009	19581.38
922.243	19437.38
922.476	19485.38
922.71	19462.38
922.944	19389.38
923.177	19333.38
923.411	19331.38
923.644	19297.38
923.878	19174.38
924.111	19086.38
924.345	18992.38
924.578	19013.38
924.811	18830.38
925.045	18788.38
925.278	18522.38
925.511	18403.38
925.744	18248.38
925.977	18145.38
926.21	18029.38
926.443	17871.38
926.676	17744.38
926.909	17567.38
927.142	17440.38
927.375	17257.38
927.608	17103.38
927.841	17128.38
928.073	17035.38
928.306	17003.38
928.539	16979.38
928.771	16983.38
929.004	16942.38
929.236	16902.38
929.469	16895.38
929.701	16959.38
929.933	16875.38
930.166	16760.38
930.398	16897.38
930.63	16898.38
930.862	16736.38
931.094	16582.38
931.327	16530.38
931.559	16465.38
931.791	16327.38
932.023	16208.38
932.255	16150.38
932.486	15951.38
932.718	15972.38
932.95	15775.38
933.182	15684.38
933.413	15535.38
933.645	15410.38
933.877	15456.38
934.108	15410.38
934.34	15304.38
934.571	15293.38
934.803	15240.38
935.034	15122.38
935.265	15043.38
935.497	15043.38
935.728	14983.38
935.959	14781.38
936.19	14792.38
936.422	14777.38
936.653	14594.38
936.884	14558.38
937.115	14483.38
937.346	14355.38
937.577	14309.38
937.807	14139.38
938.038	14102.38
938.269	14142.38
938.5	14015.38
938.73	13989.38
938.961	14001.38
939.192	13952.38
939.422	13915.38
939.653	13984.38
939.883	13942.38
940.114	13902.38
940.344	13868.38
940.574	13826.38
940.805	13707.38
941.035	13530.38
941.265	13477.38
941.495	13346.38
941.726	13292.38
941.956	13190.38
942.186	13074.38
942.416	12978.38
942.646	12829.38
942.876	12812.38
943.105	12655.38
943.335	12571.38
943.565	12478.38
943.795	12398.38
944.024	12323.38
944.254	12105.38
944.484	12097.38
944.713	12105.38
944.943	12048.38
945.172	11948.38
945.402	12003.38
945.631	11929.38
945.86	11899.38
946.09	11885.38
946.319	11831.38
946.548	11784.38
946.777	11797.38
947.006	11701.38
947.235	11676.38
947.465	11612.38
947.694	11532.38
947.922	11441.38
948.151	11384.38
948.38	11366.38
948.609	11250.38
948.838	11144.38
949.067	11025.38
949.295	10984.38
949.524	10906.38
949.752	10807.38
949.981	10837.38
950.21	10688.38
950.438	10668.38
950.666	10575.38
950.895	10461.38
951.123	10427.38
951.351	10349.38
951.58	10306.38
951.808	10283.38
952.036	10243.38
952.264	10094.38
952.492	10071.38
952.72	10122.38
952.948	10003.38
953.176	9956.38
953.404	9924.38
953.632	9820.38
953.86	9752.38
954.088	9608.38
954.315	9502.38
954.543	9542.38
954.771	9434.38
954.998	9386.38
955.226	9387.38
955.453	9249.38
955.681	9302.38
955.908	9237.38
956.135	9230.38
956.363	9286.38
956.59	9158.38
956.817	9264.38
957.045	9191.38
957.272	9063.38
957.499	9052.38
957.726	9046.38
957.953	8978.38
958.18	8912.38
958.407	8798.38
958.634	8792.38
958.861	8769.38
959.087	8719.38
959.314	8636.38
959.541	8637.38
959.767	8541.38
959.994	8464.38
960.221	8365.38
960.447	8311.38
960.674	8201.38
960.9	8230.38
961.127	8135.38
961.353	8096.38
961.579	7972.38
961.806	7964.38
962.032	7912.38
962.258	7900.38
962.484	7908.38
962.71	7790.38
962.936	7786.38
963.162	7784.38
963.388	7743.38
963.614	7768.38
963.84	7749.38
964.066	7707.38
964.292	7682.38
964.518	7634.38
964.743	7585.38
964.969	7539.38
965.195	7494.38
965.42	7475.38
965.646	7431.38
965.871	7406.38
966.097	7369.38
966.322	7358.38
966.547	7257.38
966.773	7304.38
966.998	7221.38
967.223	7179.38
967.448	7153.38
967.674	7065.38
967.899	7031.38
968.124	6975.38
968.349	6963.38
968.574	6948.38
968.799	6923.38
969.024	6887.38
969.248	6757.38
969.473	6717.38
969.698	6688.38
969.923	6677.38
970.147	6654.38
970.372	6573.38
970.596	6536.38
970.821	6502.38
971.046	6479.38
971.27	6475.38
971.494	6368.38
971.719	6376.38
971.943	6301.38
972.167	6339.38
972.392	6254.38
972.616	6156.38
972.84	6188.38
973.064	6055.38
973.288	6093.38
973.512	6073.38
973.736	6041.38
973.96	5992.38
974.184	6019.38
974.408	6021.38
974.631	5965.38
974.855	5924.38
975.079	5899.38
975.303	5848.38
975.526	5872.38
975.75	5790.38
975.973	5772.38
976.197	5728.38
976.42	5695.38
976.644	5723.38
976.867	5625.38
977.09	5657.38
977.313	5589.38
977.537	5519.38
977.76	5515.38
977.983	5477.38
978.206	5420.38
978.429	5401.38
978.652	5373.38
978.875	5335.38
979.098	5313.38
979.321	5276.38
979.544	5223.38
979.767	5230.38
979.989	5116.38
980.212	5054.38
980.435	5093.38
980.657	5011.38
980.88	5040.38
981.102	4983.38
981.325	4977.38
981.547	4942.38
981.77	4917.38
981.992	4910.38
982.214	4922.38
982.437	4860.38
982.659	4829.38
982.881	4852.38
983.103	4771.38
983.325	4790.38
983.547	4782.38
983.769	4719.38
983.991	4651.38
984.213	4721.38
984.435	4613.38
984.657	4590.38
984.879	4606.38
985.1	4597.38
985.322	4577.38
985.544	4558.38
985.765	4540.38
985.987	4493.38
986.208	4424.38
986.43	4433.38
986.651	4456.38
986.873	4435.38
987.094	4366.38
987.315	4340.38
987.536	4297.38
987.758	4254.38
987.979	4234.38
988.2	4201.38
988.421	4181.38
988.642	4193.38
988.863	4078.38
989.084	4116.38
989.305	4136.38
989.526	4084.38
989.747	4062.38
989.967	3994.38
990.188	3992.38
990.409	3995.38
990.629	3914.38
990.85	3931.38
991.071	3848.38
991.291	3900.38
991.512	3840.38
991.732	3836.38
991.952	3780.38
992.173	3776.38
992.393	3720.38
992.613	3696.38
992.834	3776.38
993.054	3742.38
993.274	3708.38
993.494	3690.38
993.714	3673.38
993.934	3682.38
994.154	3664.38
994.374	3639.38
994.594	3612.38
994.813	3597.38
995.033	3604.38
995.253	3559.38
995.473	3569.38
995.692	3531.38
995.912	3480.38
996.131	3498.38
996.351	3492.38
996.57	3438.38
996.79	3364.38
997.009	3339.38
997.228	3346.38
997.448	3327.38
997.667	3242.38
997.886	3255.38
998.105	3254.38
998.325	3183.38
998.544	3199.38
998.763	3137.38
998.982	3157.38
999.201	3090.38
999.419	3071.38
999.638	3044.38
999.857	3063.38
1000.076	3055.38
1000.295	3021.38
1000.513	3047.38
1000.732	2971.38
1000.95	2966.38
1001.169	2999.38
1001.388	2964.38
1001.606	2955.38
1001.824	2951.38
1002.043	2953.38
1002.261	2935.38
1002.479	2887.38
1002.698	2901.38
1002.916	2895.38
1003.134	2885.38
1003.352	2846.38
1003.57	2842.38
1003.788	2834.38
1004.006	2823.38
1004.224	2829.38
1004.442	2765.38
1004.66	2823.38
1004.878	2748.38
1005.095	2752.38
1005.313	2758.38
1005.531	2746.38
1005.748	2716.38
1005.966	2771.38
1006.184	2727.38
1006.401	2724.38
1006.618	2693.38
1006.836	2689.38
1007.053	2686.38
1007.271	2662.38
1007.488	2678.38
1007.705	2679.38
1007.922	2682.38
1008.139	2639.38
1008.357	2655.38
1008.574	2688.38
1008.791	2703.38
1009.008	2729.38
1009.225	2780.38
1009.441	2740.38
1009.658	2780.38
1009.875	2827.38
1010.092	2738.38
1010.309	2754.38
1010.525	2728.38
1010.742	2675.38
1010.958	2609.38
1011.175	2633.38
1011.391	2644.38
1011.608	2611.38
1011.824	2588.38
1012.041	2518.38
1012.257	2527.38
1012.473	2462.38
1012.689	2490.38
1012.906	2463.38
1013.122	2437.38
1013.338	2458.38
1013.554	2478.38
1013.77	2461.38
1013.986	2465.38
1014.202	2495.38
1014.418	2552.38
1014.634	2587.38
1014.849	2653.38
1015.065	2679.38
1015.281	2683.38
1015.496	2660.38
1015.712	2637.38
1015.928	2598.38
1016.143	2550.38
1016.359	2489.38
1016.574	2447.38
1016.79	2389.38
1017.005	2310.38
1017.22	2257.38
1017.435	2204.38
1017.651	2200.38
1017.866	2129.38
1018.081	2101.38
1018.296	2042.38
1018.511	2073.38
1018.726	2035.38
1018.941	2006.38
1019.156	1990.38
1019.371	1973.38
1019.586	1991.38
1019.801	1976.38
1020.015	1958.38
1020.23	1970.38
1020.445	1925.38
1020.659	1870.38
1020.874	1866.38
1021.088	1804.38
1021.303	1799.38
1021.517	1781.38
1021.732	1777.38
1021.946	1739.38
1022.16	1752.38
1022.375	1695.38
1022.589	1687.38
1022.803	1634.38
1023.017	1588.38
1023.231	1574.38
1023.445	1591.38
1023.659	1513.38
1023.873	1507.38
1024.087	1455.38
1024.301	1433.38
1024.515	1420.38
1024.729	1386.38
1024.942	1361.38
1025.156	1360.38
1025.37	1328.38
1025.583	1310.38
1025.797	1249.38
1026.01	1269.38
1026.224	1220.38
1026.437	1189.38
1026.651	1152.38
1026.864	1135.38
1027.077	1125.38
1027.291	1078.38
1027.504	1072.38
1027.717	1031.38
1027.93	1001.38
1028.143	973.38
1028.356	928.38
1028.569	887.38
1028.782	830.38
1028.995	-2.62
1029.208	0.38
1029.421	-3.62
1029.634	-2.62
