Data from QEP037381__356__15-44-21-565.txt Node

Date: Mon Mar 14 15:44:21 EDT 2022
User: dcclab
Spectrometer: QEP03738
Trigger mode: 4
Integration Time (sec): 2.500000E0
Scans to average: 1
Electric dark correction enabled: true
Nonlinearity correction enabled: false
Boxcar width: 0
XAxis mode: Wavelengths
Number of Pixels in Spectrum: 1044
>>>>>Begin Spectral Data<<<<<
783.959	11.5
784.218	-1.5
784.476	0.5
784.734	-4.5
784.992	269.5
785.251	272.5
785.509	253.5
785.767	248.5
786.025	261.5
786.283	264.5
786.541	257.5
786.798	245.5
787.056	250.5
787.314	244.5
787.572	249.5
787.83	244.5
788.087	248.5
788.345	246.5
788.602	242.5
788.86	246.5
789.117	242.5
789.375	244.5
789.632	238.5
789.89	235.5
790.147	264.5
790.404	249.5
790.661	257.5
790.919	278.5
791.176	268.5
791.433	265.5
791.69	277.5
791.947	289.5
792.204	257.5
792.461	286.5
792.718	293.5
792.974	299.5
793.231	285.5
793.488	330.5
793.745	328.5
794.001	349.5
794.258	356.5
794.514	362.5
794.771	389.5
795.027	393.5
795.284	410.5
795.54	439.5
795.797	471.5
796.053	513.5
796.309	556.5
796.565	593.5
796.822	660.5
797.078	754.5
797.334	853.5
797.59	1010.5
797.846	1279.5
798.102	1650.5
798.358	2197.5
798.614	3114.5
798.869	4548.5
799.125	6670.5
799.381	9750.5
799.637	13803.5
799.892	18613.5
800.148	24069.5
800.403	29354.5
800.659	33765.5
800.914	37458.5
801.17	39773.5
801.425	41336.5
801.68	42570.5
801.936	43408.5
802.191	44377.5
802.446	45508.5
802.701	46421.5
802.957	47462.5
803.212	48430.5
803.467	49459.5
803.722	50223.5
803.977	51372.5
804.232	52292.5
804.486	53357.5
804.741	54216.5
804.996	55378.5
805.251	56422.5
805.505	57499.5
805.76	58382.5
806.015	59250.5
806.269	60137.5
806.524	60767.5
806.778	61236.5
807.033	61893.5
807.287	62450.5
807.541	63319.5
807.796	64334.5
808.05	64986.5
808.304	65524.5
808.558	66028.5
808.812	66534.5
809.066	67032.5
809.32	67451.5
809.574	67948.5
809.828	68540.5
810.082	68927.5
810.336	69360.5
810.59	70074.5
810.844	70986.5
811.097	71949.5
811.351	73049.5
811.605	74231.5
811.858	75355.5
812.112	76554.5
812.365	77840.5
812.619	78862.5
812.872	79956.5
813.126	81068.5
813.379	82350.5
813.632	83394.5
813.885	84557.5
814.139	85751.5
814.392	87044.5
814.645	88544.5
814.898	90230.5
815.151	91725.5
815.404	93154.5
815.657	94985.5
815.91	96416.5
816.163	97558.5
816.416	98623.5
816.668	99451.5
816.921	99858.5
817.174	100200.5
817.426	100247.5
817.679	100615.5
817.931	100317.5
818.184	100163.5
818.436	100322.5
818.689	100511.5
818.941	100643.5
819.194	101070.5
819.446	101201.5
819.698	101705.5
819.95	102121.5
820.202	102228.5
820.455	102918.5
820.707	103228.5
820.959	103268.5
821.211	103296.5
821.462	103234.5
821.714	102758.5
821.966	102449.5
822.218	102302.5
822.47	101394.5
822.722	101222.5
822.973	100743.5
823.225	100670.5
823.476	100740.5
823.728	100723.5
823.979	100446.5
824.231	100451.5
824.482	100571.5
824.734	100583.5
824.985	100592.5
825.236	100384.5
825.487	100339.5
825.739	99975.5
825.99	99885.5
826.241	99492.5
826.492	98810.5
826.743	98246.5
826.994	97835.5
827.245	97304.5
827.496	97334.5
827.747	97229.5
827.997	97222.5
828.248	97067.5
828.499	97325.5
828.75	97284.5
829	97360.5
829.251	97221.5
829.501	96888.5
829.752	96676.5
830.002	96480.5
830.253	95714.5
830.503	95277.5
830.753	94457.5
831.004	93888.5
831.254	93545.5
831.504	93408.5
831.754	93295.5
832.004	93033.5
832.254	93015.5
832.504	93279.5
832.754	93144.5
833.004	93016.5
833.254	92747.5
833.504	92469.5
833.754	92328.5
834.003	92069.5
834.253	91532.5
834.503	91159.5
834.752	90442.5
835.002	90233.5
835.252	89803.5
835.501	89473.5
835.75	88971.5
836	88910.5
836.249	89107.5
836.499	89004.5
836.748	88609.5
836.997	88394.5
837.246	88838.5
837.495	89340.5
837.744	89562.5
837.993	89874.5
838.242	90411.5
838.491	89969.5
838.74	89319.5
838.989	87893.5
839.238	87291.5
839.487	86520.5
839.736	85879.5
839.984	85346.5
840.233	84971.5
840.482	84850.5
840.73	84411.5
840.979	84247.5
841.227	83898.5
841.476	83551.5
841.724	83417.5
841.972	82751.5
842.221	82621.5
842.469	82475.5
842.717	82032.5
842.965	81937.5
843.213	81572.5
843.461	81301.5
843.71	80860.5
843.958	80679.5
844.205	80578.5
844.453	80179.5
844.701	80131.5
844.949	79934.5
845.197	79888.5
845.445	79723.5
845.692	80029.5
845.94	80065.5
846.188	79976.5
846.435	79929.5
846.683	79783.5
846.93	79303.5
847.178	78805.5
847.425	78224.5
847.672	77805.5
847.92	77068.5
848.167	76461.5
848.414	75488.5
848.661	75187.5
848.908	74728.5
849.155	74386.5
849.402	74521.5
849.649	74587.5
849.896	74833.5
850.143	75318.5
850.39	75592.5
850.637	75526.5
850.884	75408.5
851.131	75002.5
851.377	74780.5
851.624	74711.5
851.87	74321.5
852.117	73885.5
852.364	73491.5
852.61	73123.5
852.856	72967.5
853.103	72610.5
853.349	72334.5
853.595	72171.5
853.842	71431.5
854.088	71448.5
854.334	71385.5
854.58	71425.5
854.826	70880.5
855.072	70448.5
855.318	70097.5
855.564	69125.5
855.81	68763.5
856.056	68014.5
856.302	67459.5
856.548	66984.5
856.793	66694.5
857.039	66311.5
857.285	66093.5
857.53	65980.5
857.776	66119.5
858.021	66422.5
858.267	66498.5
858.512	66699.5
858.758	66749.5
859.003	66710.5
859.248	66884.5
859.493	66573.5
859.739	66419.5
859.984	66221.5
860.229	65685.5
860.474	65342.5
860.719	64816.5
860.964	64570.5
861.209	63992.5
861.454	63615.5
861.699	63273.5
861.943	63131.5
862.188	62632.5
862.433	62328.5
862.678	62312.5
862.922	62132.5
863.167	62098.5
863.411	61634.5
863.656	61401.5
863.9	61185.5
864.145	60907.5
864.389	60776.5
864.634	60380.5
864.878	60135.5
865.122	59912.5
865.366	59649.5
865.61	59656.5
865.855	59487.5
866.099	59447.5
866.343	59148.5
866.587	58989.5
866.831	59028.5
867.074	58910.5
867.318	59072.5
867.562	58975.5
867.806	59027.5
868.05	58785.5
868.293	58550.5
868.537	58339.5
868.78	58185.5
869.024	57767.5
869.267	57339.5
869.511	57005.5
869.754	56565.5
869.998	55830.5
870.241	55228.5
870.484	55158.5
870.728	54624.5
870.971	54306.5
871.214	53994.5
871.457	54041.5
871.7	53824.5
871.943	53990.5
872.186	53932.5
872.429	53813.5
872.672	53791.5
872.915	53572.5
873.158	53423.5
873.4	53572.5
873.643	53318.5
873.886	52984.5
874.128	52969.5
874.371	52749.5
874.613	52566.5
874.856	52657.5
875.098	52184.5
875.341	52018.5
875.583	52117.5
875.825	51650.5
876.068	51393.5
876.31	51128.5
876.552	50584.5
876.794	50396.5
877.036	49813.5
877.278	49448.5
877.52	49205.5
877.762	49087.5
878.004	48894.5
878.246	48734.5
878.488	48760.5
878.73	48608.5
878.972	48474.5
879.213	48515.5
879.455	48269.5
879.697	48255.5
879.938	47985.5
880.18	47869.5
880.421	47648.5
880.663	47496.5
880.904	47739.5
881.145	47564.5
881.387	47731.5
881.628	47754.5
881.869	47380.5
882.11	47097.5
882.352	46983.5
882.593	46794.5
882.834	46774.5
883.075	46438.5
883.316	46244.5
883.557	46076.5
883.797	45913.5
884.038	45595.5
884.279	44824.5
884.52	44408.5
884.761	44034.5
885.001	43758.5
885.242	43278.5
885.482	42964.5
885.723	42747.5
885.963	42433.5
886.204	42317.5
886.444	42135.5
886.685	42091.5
886.925	41625.5
887.165	41708.5
887.405	41389.5
887.646	41267.5
887.886	41193.5
888.126	41044.5
888.366	41279.5
888.606	41227.5
888.846	41022.5
889.086	41335.5
889.326	41221.5
889.565	41025.5
889.805	40995.5
890.045	40886.5
890.285	40857.5
890.524	40627.5
890.764	40445.5
891.003	40200.5
891.243	39726.5
891.482	39222.5
891.722	39115.5
891.961	38822.5
892.201	38723.5
892.44	38361.5
892.679	38084.5
892.918	38088.5
893.158	37824.5
893.397	37634.5
893.636	37626.5
893.875	37586.5
894.114	37264.5
894.353	37113.5
894.592	37069.5
894.831	36834.5
895.069	36661.5
895.308	36373.5
895.547	36154.5
895.786	35930.5
896.024	35909.5
896.263	35893.5
896.501	35745.5
896.74	35599.5
896.978	35435.5
897.217	35470.5
897.455	35288.5
897.694	35125.5
897.932	34947.5
898.17	35027.5
898.408	34897.5
898.646	34668.5
898.885	34524.5
899.123	34294.5
899.361	34243.5
899.599	33916.5
899.837	33617.5
900.075	33448.5
900.312	33148.5
900.55	32927.5
900.788	32563.5
901.026	32256.5
901.263	32068.5
901.501	31758.5
901.739	31662.5
901.976	31360.5
902.214	31260.5
902.451	30996.5
902.689	31020.5
902.926	30990.5
903.163	30912.5
903.401	30949.5
903.638	30849.5
903.875	30760.5
904.112	30809.5
904.349	30650.5
904.586	30762.5
904.823	30556.5
905.06	30207.5
905.297	30018.5
905.534	29807.5
905.771	29549.5
906.008	29309.5
906.245	29121.5
906.481	29034.5
906.718	28894.5
906.955	28714.5
907.191	28610.5
907.428	28491.5
907.664	28184.5
907.901	28182.5
908.137	28030.5
908.374	27822.5
908.61	27843.5
908.846	27631.5
909.083	27378.5
909.319	27268.5
909.555	27247.5
909.791	26958.5
910.027	26724.5
910.263	26581.5
910.499	26294.5
910.735	25997.5
910.971	25775.5
911.207	25743.5
911.443	25594.5
911.678	25390.5
911.914	25435.5
912.15	25311.5
912.385	25185.5
912.621	25164.5
912.857	25196.5
913.092	25126.5
913.328	25085.5
913.563	25005.5
913.798	24831.5
914.034	24998.5
914.269	24813.5
914.504	24679.5
914.739	24619.5
914.975	24337.5
915.21	24392.5
915.445	24035.5
915.68	23943.5
915.915	23637.5
916.15	23293.5
916.384	23114.5
916.619	22962.5
916.854	22737.5
917.089	22677.5
917.324	22419.5
917.558	22343.5
917.793	22138.5
918.028	22057.5
918.262	21921.5
918.497	21922.5
918.731	21799.5
918.965	21786.5
919.2	21734.5
919.434	21639.5
919.668	21662.5
919.903	21589.5
920.137	21605.5
920.371	21443.5
920.605	21317.5
920.839	21144.5
921.073	20938.5
921.307	20798.5
921.541	20534.5
921.775	20465.5
922.009	20361.5
922.243	20331.5
922.476	20325.5
922.71	20316.5
922.944	20175.5
923.177	20133.5
923.411	20217.5
923.644	20211.5
923.878	20002.5
924.111	19947.5
924.345	19868.5
924.578	19808.5
924.811	19666.5
925.045	19595.5
925.278	19449.5
925.511	19239.5
925.744	19036.5
925.977	19008.5
926.21	18857.5
926.443	18676.5
926.676	18478.5
926.909	18426.5
927.142	18223.5
927.375	18103.5
927.608	17877.5
927.841	17917.5
928.073	17775.5
928.306	17659.5
928.539	17746.5
928.771	17677.5
929.004	17713.5
929.236	17620.5
929.469	17719.5
929.701	17603.5
929.933	17634.5
930.166	17640.5
930.398	17537.5
930.63	17515.5
930.862	17449.5
931.094	17333.5
931.327	17252.5
931.559	17158.5
931.791	17035.5
932.023	16886.5
932.255	16873.5
932.486	16621.5
932.718	16627.5
932.95	16321.5
933.182	16383.5
933.413	16316.5
933.645	16135.5
933.877	16049.5
934.108	16034.5
934.34	15953.5
934.571	15932.5
934.803	15793.5
935.034	15781.5
935.265	15624.5
935.497	15667.5
935.728	15563.5
935.959	15541.5
936.19	15463.5
936.422	15370.5
936.653	15295.5
936.884	15154.5
937.115	15074.5
937.346	15028.5
937.577	14880.5
937.807	14836.5
938.038	14714.5
938.269	14654.5
938.5	14663.5
938.73	14601.5
938.961	14622.5
939.192	14629.5
939.422	14538.5
939.653	14567.5
939.883	14433.5
940.114	14422.5
940.344	14387.5
940.574	14322.5
940.805	14157.5
941.035	14060.5
941.265	14028.5
941.495	13928.5
941.726	13811.5
941.956	13723.5
942.186	13633.5
942.416	13525.5
942.646	13367.5
942.876	13316.5
943.105	13255.5
943.335	13104.5
943.565	13028.5
943.795	12858.5
944.024	12800.5
944.254	12581.5
944.484	12603.5
944.713	12466.5
944.943	12558.5
945.172	12419.5
945.402	12463.5
945.631	12461.5
945.86	12383.5
946.09	12280.5
946.319	12349.5
946.548	12261.5
946.777	12299.5
947.006	12207.5
947.235	12124.5
947.465	12100.5
947.694	12058.5
947.922	11984.5
948.151	11866.5
948.38	11781.5
948.609	11593.5
948.838	11569.5
949.067	11499.5
949.295	11347.5
949.524	11366.5
949.752	11222.5
949.981	11229.5
950.21	11086.5
950.438	11171.5
950.666	11030.5
950.895	10952.5
951.123	10932.5
951.351	10815.5
951.58	10714.5
951.808	10683.5
952.036	10589.5
952.264	10537.5
952.492	10587.5
952.72	10472.5
952.948	10402.5
953.176	10345.5
953.404	10293.5
953.632	10160.5
953.86	10080.5
954.088	9939.5
954.315	9894.5
954.543	9879.5
954.771	9793.5
954.998	9711.5
955.226	9720.5
955.453	9647.5
955.681	9626.5
955.908	9626.5
956.135	9603.5
956.363	9515.5
956.59	9504.5
956.817	9581.5
957.045	9495.5
957.272	9464.5
957.499	9394.5
957.726	9323.5
957.953	9346.5
958.18	9260.5
958.407	9308.5
958.634	9185.5
958.861	9070.5
959.087	9009.5
959.314	8989.5
959.541	8814.5
959.767	8828.5
959.994	8795.5
960.221	8688.5
960.447	8577.5
960.674	8599.5
960.9	8505.5
961.127	8443.5
961.353	8392.5
961.579	8387.5
961.806	8269.5
962.032	8218.5
962.258	8197.5
962.484	8169.5
962.71	8104.5
962.936	8109.5
963.162	8103.5
963.388	8116.5
963.614	8055.5
963.84	8078.5
964.066	8007.5
964.292	7954.5
964.518	7926.5
964.743	7872.5
964.969	7814.5
965.195	7824.5
965.42	7732.5
965.646	7656.5
965.871	7680.5
966.097	7633.5
966.322	7620.5
966.547	7539.5
966.773	7500.5
966.998	7484.5
967.223	7423.5
967.448	7325.5
967.674	7349.5
967.899	7264.5
968.124	7234.5
968.349	7251.5
968.574	7163.5
968.799	7145.5
969.024	7127.5
969.248	7027.5
969.473	7024.5
969.698	6982.5
969.923	6927.5
970.147	6890.5
970.372	6790.5
970.596	6810.5
970.821	6795.5
971.046	6765.5
971.27	6725.5
971.494	6664.5
971.719	6592.5
971.943	6550.5
972.167	6528.5
972.392	6505.5
972.616	6405.5
972.84	6395.5
973.064	6314.5
973.288	6360.5
973.512	6307.5
973.736	6228.5
973.96	6224.5
974.184	6221.5
974.408	6183.5
974.631	6181.5
974.855	6139.5
975.079	6116.5
975.303	6079.5
975.526	6091.5
975.75	6051.5
975.973	5976.5
976.197	5958.5
976.42	5905.5
976.644	5896.5
976.867	5840.5
977.09	5819.5
977.313	5774.5
977.537	5747.5
977.76	5660.5
977.983	5646.5
978.206	5592.5
978.429	5621.5
978.652	5540.5
978.875	5498.5
979.098	5419.5
979.321	5417.5
979.544	5349.5
979.767	5342.5
979.989	5329.5
980.212	5309.5
980.435	5270.5
980.657	5201.5
980.88	5161.5
981.102	5189.5
981.325	5158.5
981.547	5135.5
981.77	5079.5
981.992	5057.5
982.214	5034.5
982.437	4995.5
982.659	4976.5
982.881	5012.5
983.103	4937.5
983.325	4888.5
983.547	4881.5
983.769	4851.5
983.991	4883.5
984.213	4883.5
984.435	4821.5
984.657	4821.5
984.879	4804.5
985.1	4727.5
985.322	4693.5
985.544	4684.5
985.765	4614.5
985.987	4622.5
986.208	4629.5
986.43	4604.5
986.651	4575.5
986.873	4525.5
987.094	4559.5
987.315	4493.5
987.536	4459.5
987.758	4428.5
987.979	4343.5
988.2	4340.5
988.421	4346.5
988.642	4283.5
988.863	4268.5
989.084	4281.5
989.305	4177.5
989.526	4154.5
989.747	4168.5
989.967	4138.5
990.188	4127.5
990.409	4064.5
990.629	4056.5
990.85	3989.5
991.071	3979.5
991.291	3966.5
991.512	3947.5
991.732	3919.5
991.952	3911.5
992.173	3899.5
992.393	3866.5
992.613	3880.5
992.834	3849.5
993.054	3837.5
993.274	3826.5
993.494	3805.5
993.714	3838.5
993.934	3783.5
994.154	3782.5
994.374	3778.5
994.594	3722.5
994.813	3742.5
995.033	3683.5
995.253	3705.5
995.473	3665.5
995.692	3655.5
995.912	3576.5
996.131	3589.5
996.351	3568.5
996.57	3559.5
996.79	3491.5
997.009	3462.5
997.228	3485.5
997.448	3421.5
997.667	3426.5
997.886	3330.5
998.105	3356.5
998.325	3294.5
998.544	3310.5
998.763	3251.5
998.982	3195.5
999.201	3180.5
999.419	3178.5
999.638	3128.5
999.857	3152.5
1000.076	3138.5
1000.295	3137.5
1000.513	3098.5
1000.732	3103.5
1000.95	3090.5
1001.169	3100.5
1001.388	3069.5
1001.606	3034.5
1001.824	3062.5
1002.043	3041.5
1002.261	2956.5
1002.479	3022.5
1002.698	2997.5
1002.916	2960.5
1003.134	2937.5
1003.352	2897.5
1003.57	2952.5
1003.788	2912.5
1004.006	2916.5
1004.224	2881.5
1004.442	2846.5
1004.66	2895.5
1004.878	2844.5
1005.095	2817.5
1005.313	2861.5
1005.531	2846.5
1005.748	2817.5
1005.966	2883.5
1006.184	2775.5
1006.401	2801.5
1006.618	2736.5
1006.836	2734.5
1007.053	2749.5
1007.271	2735.5
1007.488	2756.5
1007.705	2742.5
1007.922	2779.5
1008.139	2707.5
1008.357	2727.5
1008.574	2756.5
1008.791	2746.5
1009.008	2776.5
1009.225	2785.5
1009.441	2798.5
1009.658	2855.5
1009.875	2868.5
1010.092	2828.5
1010.309	2813.5
1010.525	2788.5
1010.742	2723.5
1010.958	2702.5
1011.175	2717.5
1011.391	2658.5
1011.608	2664.5
1011.824	2619.5
1012.041	2586.5
1012.257	2595.5
1012.473	2576.5
1012.689	2535.5
1012.906	2562.5
1013.122	2530.5
1013.338	2528.5
1013.554	2548.5
1013.77	2549.5
1013.986	2560.5
1014.202	2591.5
1014.418	2599.5
1014.634	2655.5
1014.849	2699.5
1015.065	2725.5
1015.281	2762.5
1015.496	2717.5
1015.712	2721.5
1015.928	2631.5
1016.143	2574.5
1016.359	2534.5
1016.574	2453.5
1016.79	2409.5
1017.005	2403.5
1017.22	2350.5
1017.435	2256.5
1017.651	2262.5
1017.866	2227.5
1018.081	2162.5
1018.296	2078.5
1018.511	2099.5
1018.726	2072.5
1018.941	2060.5
1019.156	2020.5
1019.371	2042.5
1019.586	2050.5
1019.801	2018.5
1020.015	1986.5
1020.23	2013.5
1020.445	1965.5
1020.659	1937.5
1020.874	1933.5
1021.088	1880.5
1021.303	1815.5
1021.517	1830.5
1021.732	1803.5
1021.946	1764.5
1022.16	1788.5
1022.375	1747.5
1022.589	1684.5
1022.803	1688.5
1023.017	1649.5
1023.231	1603.5
1023.445	1600.5
1023.659	1556.5
1023.873	1535.5
1024.087	1487.5
1024.301	1444.5
1024.515	1432.5
1024.729	1456.5
1024.942	1387.5
1025.156	1400.5
1025.37	1344.5
1025.583	1322.5
1025.797	1300.5
1026.01	1280.5
1026.224	1244.5
1026.437	1216.5
1026.651	1192.5
1026.864	1138.5
1027.077	1147.5
1027.291	1115.5
1027.504	1077.5
1027.717	1031.5
1027.93	1025.5
1028.143	1013.5
1028.356	987.5
1028.569	915.5
1028.782	887.5
1028.995	-2.5
1029.208	-3.5
1029.421	0.5
1029.634	-0.5
