Data from QEP037381__383__15-45-39-068.txt Node

Date: Mon Mar 14 15:45:39 EDT 2022
User: dcclab
Spectrometer: QEP03738
Trigger mode: 4
Integration Time (sec): 2.500000E0
Scans to average: 1
Electric dark correction enabled: true
Nonlinearity correction enabled: false
Boxcar width: 0
XAxis mode: Wavelengths
Number of Pixels in Spectrum: 1044
>>>>>Begin Spectral Data<<<<<
783.959	11
784.218	3
784.476	-3
784.734	-5
784.992	285
785.251	268
785.509	256
785.767	259
786.025	260
786.283	247
786.541	261
786.798	268
787.056	245
787.314	232
787.572	251
787.83	237
788.087	249
788.345	245
788.602	235
788.86	245
789.117	240
789.375	236
789.632	231
789.89	240
790.147	253
790.404	264
790.661	240
790.919	269
791.176	259
791.433	266
791.69	269
791.947	277
792.204	259
792.461	281
792.718	282
792.974	283
793.231	294
793.488	312
793.745	308
794.001	337
794.258	353
794.514	344
794.771	368
795.027	382
795.284	408
795.54	426
795.797	429
796.053	494
796.309	523
796.565	562
796.822	626
797.078	702
797.334	828
797.59	967
797.846	1208
798.102	1564
798.358	2097
798.614	2959
798.869	4284
799.125	6380
799.381	9300
799.637	13131
799.892	17853
800.148	22998
800.403	28012
800.659	32370
800.914	35652
801.17	37901
801.425	39485
801.68	40428
801.936	41504
802.191	42162
802.446	43178
802.701	44202
802.957	45176
803.212	45964
803.467	46919
803.722	47960
803.977	48814
804.232	49740
804.486	50757
804.741	51708
804.996	52595
805.251	53763
805.505	54560
805.76	55643
806.015	56434
806.269	57228
806.524	57973
806.778	58328
807.033	58804
807.287	59459
807.541	60351
807.796	61209
808.05	61914
808.304	62508
808.558	63007
808.812	63361
809.066	63765
809.32	64446
809.574	64711
809.828	65088
810.082	65714
810.336	66052
810.59	66763
810.844	67602
811.097	68414
811.351	69384
811.605	70506
811.858	71680
812.112	72756
812.365	73925
812.619	75159
812.872	76157
813.126	77382
813.379	78626
813.632	79702
813.885	80401
814.139	81686
814.392	82754
814.645	84130
814.898	85888
815.151	87613
815.404	88741
815.657	90503
815.91	92059
816.163	93097
816.416	94058
816.668	94731
816.921	95524
817.174	95505
817.426	95627
817.679	95643
817.931	95495
818.184	95742
818.436	95747
818.689	95722
818.941	96035
819.194	96251
819.446	96562
819.698	96857
819.95	97413
820.202	97767
820.455	97999
820.707	98596
820.959	98687
821.211	98244
821.462	98407
821.714	98126
821.966	97859
822.218	97272
822.47	97035
822.722	96462
822.973	96303
823.225	95816
823.476	95954
823.728	95736
823.979	96010
824.231	96037
824.482	95989
824.734	96030
824.985	96060
825.236	95947
825.487	95732
825.739	95627
825.99	95314
826.241	94713
826.492	94367
826.743	93978
826.994	93534
827.245	93228
827.496	93099
827.747	92769
827.997	92738
828.248	92923
828.499	92885
828.75	92951
829	92877
829.251	92894
829.501	92883
829.752	92371
830.002	92126
830.253	91717
830.503	91086
830.753	90437
831.004	89760
831.254	89555
831.504	89179
831.754	89106
832.004	88823
832.254	89060
832.504	88955
832.754	89230
833.004	89138
833.254	88907
833.504	88506
833.754	88068
834.003	87977
834.253	87781
834.503	86948
834.752	86584
835.002	86340
835.252	85865
835.501	85513
835.75	85278
836	85089
836.249	85007
836.499	84947
836.748	84928
836.997	84906
837.246	84919
837.495	85422
837.744	85741
837.993	85980
838.242	86366
838.491	86263
838.74	85473
838.989	84342
839.238	83662
839.487	82725
839.736	82412
839.984	81741
840.233	81548
840.482	81123
840.73	80889
840.979	80605
841.227	80460
841.476	80187
841.724	79700
841.972	79496
842.221	79013
842.469	79016
842.717	78631
842.965	78301
843.213	78124
843.461	77896
843.71	77605
843.958	77253
844.205	77205
844.453	76872
844.701	76841
844.949	76730
845.197	76572
845.445	76534
845.692	76809
845.94	76543
846.188	76729
846.435	76601
846.683	76332
846.93	76059
847.178	75688
847.425	74908
847.672	74715
847.92	73877
848.167	73078
848.414	72555
848.661	71850
848.908	71764
849.155	71243
849.402	71301
849.649	71386
849.896	71790
850.143	72154
850.39	72345
850.637	72271
850.884	72196
851.131	72032
851.377	71912
851.624	71463
851.87	71245
852.117	70824
852.364	70620
852.61	70395
852.856	70153
853.103	69611
853.349	69446
853.595	69152
853.842	68589
854.088	68649
854.334	68643
854.58	68606
854.826	68061
855.072	67557
855.318	67173
855.564	66535
855.81	66043
856.056	65311
856.302	64950
856.548	64592
856.793	64056
857.039	63658
857.285	63428
857.53	63265
857.776	63373
858.021	63514
858.267	63756
858.512	64019
858.758	63981
859.003	63967
859.248	64052
859.493	63944
859.739	63718
859.984	63597
860.229	63063
860.474	62677
860.719	62277
860.964	61987
861.209	61511
861.454	61184
861.699	60960
861.943	60391
862.188	60163
862.433	59977
862.678	59655
862.922	59734
863.167	59541
863.411	59259
863.656	59107
863.9	58802
864.145	58662
864.389	58316
864.634	58179
864.878	57967
865.122	57726
865.366	57288
865.61	57285
865.855	57099
866.099	56985
866.343	56946
866.587	56625
866.831	56855
867.074	56867
867.318	56651
867.562	56563
867.806	56751
868.05	56412
868.293	56370
868.537	56100
868.78	56017
869.024	55610
869.267	55148
869.511	54736
869.754	54203
869.998	53820
870.241	53297
870.484	52749
870.728	52516
870.971	52173
871.214	51918
871.457	51884
871.7	51654
871.943	51770
872.186	51895
872.429	51902
872.672	51731
872.915	51539
873.158	51426
873.4	51343
873.643	51283
873.886	50970
874.128	50891
874.371	50801
874.613	50613
874.856	50458
875.098	50201
875.341	50250
875.583	49961
875.825	49644
876.068	49403
876.31	49103
876.552	48701
876.794	48435
877.036	47836
877.278	47637
877.52	47303
877.762	47154
878.004	47081
878.246	46918
878.488	46851
878.73	46818
878.972	46524
879.213	46561
879.455	46557
879.697	46363
879.938	46207
880.18	46149
880.421	45909
880.663	45645
880.904	45846
881.145	45905
881.387	45771
881.628	45787
881.869	45663
882.11	45402
882.352	45016
882.593	45019
882.834	44755
883.075	44768
883.316	44567
883.557	44311
883.797	44007
884.038	43672
884.279	43274
884.52	42755
884.761	42424
885.001	41943
885.242	41583
885.482	41313
885.723	41253
885.963	40910
886.204	40738
886.444	40557
886.685	40441
886.925	40166
887.165	40060
887.405	39969
887.646	39950
887.886	39633
888.126	39629
888.366	39477
888.606	39497
888.846	39716
889.086	39724
889.326	39539
889.565	39561
889.805	39514
890.045	39312
890.285	39426
890.524	39191
890.764	39003
891.003	38709
891.243	38168
891.482	38022
891.722	37612
891.961	37308
892.201	37204
892.44	36883
892.679	36662
892.918	36450
893.158	36566
893.397	36378
893.636	36228
893.875	36124
894.114	35830
894.353	35863
894.592	35559
894.831	35494
895.069	35220
895.308	34935
895.547	34770
895.786	34649
896.024	34524
896.263	34396
896.501	34429
896.74	34305
896.978	34220
897.217	34075
897.455	33885
897.694	33888
897.932	33888
898.17	33626
898.408	33494
898.646	33394
898.885	33137
899.123	33066
899.361	32802
899.599	32598
899.837	32457
900.075	32222
900.312	31960
900.55	31699
900.788	31364
901.026	31064
901.263	30767
901.501	30648
901.739	30432
901.976	30112
902.214	30045
902.451	29874
902.689	29801
902.926	29815
903.163	29836
903.401	30001
903.638	29586
903.875	29660
904.112	29519
904.349	29592
904.586	29566
904.823	29396
905.06	29190
905.297	28890
905.534	28731
905.771	28481
906.008	28263
906.245	28146
906.481	27836
906.718	27761
906.955	27603
907.191	27454
907.428	27309
907.664	27212
907.901	27105
908.137	26951
908.374	26827
908.61	26829
908.846	26644
909.083	26502
909.319	26294
909.555	26121
909.791	25967
910.027	25749
910.263	25501
910.499	25352
910.735	25168
910.971	24793
911.207	24712
911.443	24556
911.678	24564
911.914	24472
912.15	24402
912.385	24348
912.621	24286
912.857	24261
913.092	24229
913.328	24162
913.563	24186
913.798	24067
914.034	23929
914.269	23968
914.504	23959
914.739	23702
914.975	23644
915.21	23397
915.445	23225
915.68	22959
915.915	22835
916.15	22488
916.384	22172
916.619	22082
916.854	21828
917.089	21710
917.324	21595
917.558	21500
917.793	21377
918.028	21194
918.262	21199
918.497	21166
918.731	21158
918.965	20984
919.2	21055
919.434	20893
919.668	20912
919.903	20822
920.137	20788
920.371	20691
920.605	20485
920.839	20366
921.073	20144
921.307	19941
921.541	19808
921.775	19717
922.009	19645
922.243	19598
922.476	19554
922.71	19522
922.944	19585
923.177	19466
923.411	19422
923.644	19393
923.878	19308
924.111	19223
924.345	19221
924.578	19042
924.811	19039
925.045	18804
925.278	18671
925.511	18612
925.744	18401
925.977	18289
926.21	18059
926.443	18007
926.676	17818
926.909	17671
927.142	17461
927.375	17408
927.608	17184
927.841	17192
928.073	17198
928.306	17109
928.539	17108
928.771	17016
929.004	17047
929.236	17038
929.469	17048
929.701	17076
929.933	17006
930.166	16962
930.398	16967
930.63	16910
930.862	16913
931.094	16629
931.327	16669
931.559	16457
931.791	16361
932.023	16341
932.255	16198
932.486	16020
932.718	15934
932.95	15826
933.182	15755
933.413	15680
933.645	15667
933.877	15574
934.108	15507
934.34	15388
934.571	15374
934.803	15354
935.034	15264
935.265	15191
935.497	15125
935.728	15049
935.959	15054
936.19	14836
936.422	14817
936.653	14682
936.884	14703
937.115	14470
937.346	14519
937.577	14383
937.807	14315
938.038	14244
938.269	14207
938.5	14142
938.73	14039
938.961	14076
939.192	13997
939.422	14006
939.653	13954
939.883	14005
940.114	13910
940.344	13894
940.574	13866
940.805	13726
941.035	13698
941.265	13618
941.495	13426
941.726	13334
941.956	13267
942.186	13210
942.416	13011
942.646	12979
942.876	12795
943.105	12685
943.335	12657
943.565	12496
943.795	12449
944.024	12370
944.254	12285
944.484	12121
944.713	12149
944.943	12085
945.172	11977
945.402	11999
945.631	12009
945.86	11943
946.09	11922
946.319	11958
946.548	11913
946.777	11834
947.006	11822
947.235	11723
947.465	11721
947.694	11566
947.922	11556
948.151	11398
948.38	11367
948.609	11251
948.838	11157
949.067	11204
949.295	11069
949.524	10981
949.752	10935
949.981	10849
950.21	10739
950.438	10709
950.666	10587
950.895	10532
951.123	10406
951.351	10427
951.58	10361
951.808	10314
952.036	10288
952.264	10200
952.492	10143
952.72	10092
952.948	10042
953.176	9992
953.404	9889
953.632	9850
953.86	9781
954.088	9682
954.315	9528
954.543	9543
954.771	9445
954.998	9381
955.226	9384
955.453	9308
955.681	9289
955.908	9238
956.135	9247
956.363	9217
956.59	9216
956.817	9182
957.045	9163
957.272	9147
957.499	9100
957.726	9061
957.953	8943
958.18	8908
958.407	8868
958.634	8827
958.861	8840
959.087	8735
959.314	8572
959.541	8594
959.767	8566
959.994	8480
960.221	8464
960.447	8318
960.674	8342
960.9	8225
961.127	8170
961.353	8066
961.579	8014
961.806	8024
962.032	7959
962.258	7962
962.484	7891
962.71	7867
962.936	7787
963.162	7848
963.388	7783
963.614	7781
963.84	7713
964.066	7733
964.292	7722
964.518	7666
964.743	7624
964.969	7578
965.195	7524
965.42	7477
965.646	7491
965.871	7465
966.097	7386
966.322	7368
966.547	7331
966.773	7254
966.998	7257
967.223	7182
967.448	7204
967.674	7087
967.899	7101
968.124	7033
968.349	7033
968.574	6963
968.799	6905
969.024	6857
969.248	6788
969.473	6768
969.698	6773
969.923	6681
970.147	6675
970.372	6580
970.596	6547
970.821	6493
971.046	6492
971.27	6469
971.494	6422
971.719	6367
971.943	6380
972.167	6299
972.392	6243
972.616	6250
972.84	6201
973.064	6129
973.288	6117
973.512	6087
973.736	6092
973.96	6028
974.184	6049
974.408	6004
974.631	5979
974.855	5965
975.079	5920
975.303	5914
975.526	5882
975.75	5831
975.973	5797
976.197	5806
976.42	5778
976.644	5663
976.867	5666
977.09	5615
977.313	5608
977.537	5597
977.76	5497
977.983	5498
978.206	5464
978.429	5443
978.652	5403
978.875	5335
979.098	5258
979.321	5248
979.544	5237
979.767	5189
979.989	5164
980.212	5123
980.435	5094
980.657	5018
980.88	5003
981.102	5010
981.325	5029
981.547	4960
981.77	4942
981.992	4878
982.214	4888
982.437	4861
982.659	4870
982.881	4795
983.103	4810
983.325	4717
983.547	4753
983.769	4668
983.991	4734
984.213	4708
984.435	4672
984.657	4643
984.879	4637
985.1	4596
985.322	4548
985.544	4528
985.765	4494
985.987	4527
986.208	4496
986.43	4451
986.651	4373
986.873	4404
987.094	4427
987.315	4341
987.536	4273
987.758	4252
987.979	4269
988.2	4243
988.421	4238
988.642	4163
988.863	4094
989.084	4101
989.305	4070
989.526	4026
989.747	4052
989.967	4009
990.188	3959
990.409	4008
990.629	3916
990.85	3963
991.071	3870
991.291	3864
991.512	3838
991.732	3828
991.952	3788
992.173	3781
992.393	3773
992.613	3745
992.834	3732
993.054	3724
993.274	3766
993.494	3680
993.714	3719
993.934	3668
994.154	3673
994.374	3665
994.594	3600
994.813	3642
995.033	3605
995.253	3627
995.473	3581
995.692	3502
995.912	3538
996.131	3456
996.351	3466
996.57	3420
996.79	3399
997.009	3381
997.228	3385
997.448	3314
997.667	3247
997.886	3261
998.105	3219
998.325	3166
998.544	3178
998.763	3151
998.982	3144
999.201	3126
999.419	3068
999.638	3063
999.857	3086
1000.076	3069
1000.295	3020
1000.513	3036
1000.732	3004
1000.95	2967
1001.169	2999
1001.388	2968
1001.606	2936
1001.824	2939
1002.043	2929
1002.261	2902
1002.479	2897
1002.698	2886
1002.916	2880
1003.134	2881
1003.352	2874
1003.57	2846
1003.788	2849
1004.006	2832
1004.224	2821
1004.442	2811
1004.66	2809
1004.878	2785
1005.095	2784
1005.313	2816
1005.531	2721
1005.748	2734
1005.966	2852
1006.184	2686
1006.401	2719
1006.618	2685
1006.836	2690
1007.053	2670
1007.271	2668
1007.488	2667
1007.705	2705
1007.922	2686
1008.139	2635
1008.357	2668
1008.574	2688
1008.791	2685
1009.008	2721
1009.225	2734
1009.441	2743
1009.658	2768
1009.875	2791
1010.092	2786
1010.309	2746
1010.525	2718
1010.742	2683
1010.958	2626
1011.175	2667
1011.391	2634
1011.608	2600
1011.824	2566
1012.041	2537
1012.257	2549
1012.473	2532
1012.689	2463
1012.906	2477
1013.122	2446
1013.338	2467
1013.554	2467
1013.77	2469
1013.986	2492
1014.202	2479
1014.418	2550
1014.634	2615
1014.849	2646
1015.065	2695
1015.281	2665
1015.496	2719
1015.712	2624
1015.928	2547
1016.143	2524
1016.359	2457
1016.574	2417
1016.79	2366
1017.005	2351
1017.22	2267
1017.435	2232
1017.651	2182
1017.866	2149
1018.081	2117
1018.296	2061
1018.511	2035
1018.726	2016
1018.941	2037
1019.156	2003
1019.371	1974
1019.586	1994
1019.801	1932
1020.015	1911
1020.23	1946
1020.445	1901
1020.659	1898
1020.874	1883
1021.088	1856
1021.303	1822
1021.517	1762
1021.732	1765
1021.946	1747
1022.16	1726
1022.375	1678
1022.589	1669
1022.803	1607
1023.017	1612
1023.231	1567
1023.445	1565
1023.659	1500
1023.873	1484
1024.087	1428
1024.301	1450
1024.515	1437
1024.729	1389
1024.942	1365
1025.156	1359
1025.37	1326
1025.583	1291
1025.797	1271
1026.01	1271
1026.224	1212
1026.437	1198
1026.651	1152
1026.864	1113
1027.077	1121
1027.291	1066
1027.504	1045
1027.717	1037
1027.93	1005
1028.143	974
1028.356	939
1028.569	899
1028.782	848
1028.995	-1
1029.208	-1
1029.421	-2
1029.634	-2
