Data from QEP037381__385__15-45-44-066.txt Node

Date: Mon Mar 14 15:45:44 EDT 2022
User: dcclab
Spectrometer: QEP03738
Trigger mode: 4
Integration Time (sec): 2.500000E0
Scans to average: 1
Electric dark correction enabled: true
Nonlinearity correction enabled: false
Boxcar width: 0
XAxis mode: Wavelengths
Number of Pixels in Spectrum: 1044
>>>>>Begin Spectral Data<<<<<
783.959	14.25
784.218	-1.75
784.476	-1.75
784.734	-2.75
784.992	288.25
785.251	257.25
785.509	266.25
785.767	248.25
786.025	248.25
786.283	263.25
786.541	254.25
786.798	250.25
787.056	249.25
787.314	230.25
787.572	246.25
787.83	224.25
788.087	238.25
788.345	227.25
788.602	229.25
788.86	241.25
789.117	248.25
789.375	230.25
789.632	227.25
789.89	232.25
790.147	254.25
790.404	242.25
790.661	232.25
790.919	266.25
791.176	251.25
791.433	270.25
791.69	274.25
791.947	254.25
792.204	250.25
792.461	278.25
792.718	280.25
792.974	277.25
793.231	286.25
793.488	302.25
793.745	304.25
794.001	324.25
794.258	327.25
794.514	340.25
794.771	363.25
795.027	380.25
795.284	382.25
795.54	428.25
795.797	433.25
796.053	465.25
796.309	513.25
796.565	551.25
796.822	614.25
797.078	679.25
797.334	823.25
797.59	927.25
797.846	1161.25
798.102	1477.25
798.358	2008.25
798.614	2852.25
798.869	4146.25
799.125	6151.25
799.381	8981.25
799.637	12770.25
799.892	17335.25
800.148	22216.25
800.403	27118.25
800.659	31150.25
800.914	34352.25
801.17	36675.25
801.425	38057.25
801.68	39001.25
801.936	39942.25
802.191	40791.25
802.446	41691.25
802.701	42568.25
802.957	43586.25
803.212	44404.25
803.467	45320.25
803.722	46155.25
803.977	47192.25
804.232	47949.25
804.486	48987.25
804.741	49819.25
804.996	50793.25
805.251	52037.25
805.505	52661.25
805.76	53716.25
806.015	54483.25
806.269	55081.25
806.524	55711.25
806.778	56282.25
807.033	56811.25
807.287	57305.25
807.541	58230.25
807.796	59116.25
808.05	60041.25
808.304	60362.25
808.558	60576.25
808.812	61225.25
809.066	61681.25
809.32	62126.25
809.574	62610.25
809.828	62845.25
810.082	63376.25
810.336	63899.25
810.59	64521.25
810.844	65431.25
811.097	66275.25
811.351	67034.25
811.605	68277.25
811.858	69206.25
812.112	70457.25
812.365	71541.25
812.619	72647.25
812.872	73727.25
813.126	74671.25
813.379	75971.25
813.632	76649.25
813.885	77980.25
814.139	78955.25
814.392	80128.25
814.645	81579.25
814.898	82919.25
815.151	84286.25
815.404	85951.25
815.657	87485.25
815.91	88918.25
816.163	89980.25
816.416	90953.25
816.668	91614.25
816.921	92218.25
817.174	92337.25
817.426	92524.25
817.679	92654.25
817.931	92263.25
818.184	92352.25
818.436	92456.25
818.689	92356.25
818.941	92608.25
819.194	92844.25
819.446	93268.25
819.698	93775.25
819.95	94194.25
820.202	94639.25
820.455	94803.25
820.707	95450.25
820.959	95323.25
821.211	95265.25
821.462	95080.25
821.714	95031.25
821.966	94720.25
822.218	94233.25
822.47	93901.25
822.722	93410.25
822.973	93080.25
823.225	92925.25
823.476	93065.25
823.728	92852.25
823.979	92896.25
824.231	92889.25
824.482	93057.25
824.734	92648.25
824.985	92915.25
825.236	92952.25
825.487	92740.25
825.739	92520.25
825.99	92203.25
826.241	92026.25
826.492	91335.25
826.743	90714.25
826.994	90413.25
827.245	90192.25
827.496	90329.25
827.747	89827.25
827.997	90094.25
828.248	89891.25
828.499	90081.25
828.75	89785.25
829	90014.25
829.251	89985.25
829.501	90092.25
829.752	89497.25
830.002	89105.25
830.253	88679.25
830.503	88086.25
830.753	87555.25
831.004	86874.25
831.254	86486.25
831.504	86437.25
831.754	86061.25
832.004	86142.25
832.254	86266.25
832.504	86199.25
832.754	86481.25
833.004	86342.25
833.254	85841.25
833.504	85727.25
833.754	85460.25
834.003	85230.25
834.253	84963.25
834.503	84403.25
834.752	83881.25
835.002	83525.25
835.252	83237.25
835.501	82841.25
835.75	82665.25
836	82542.25
836.249	82548.25
836.499	82438.25
836.748	82353.25
836.997	82128.25
837.246	82368.25
837.495	82736.25
837.744	83244.25
837.993	83567.25
838.242	83955.25
838.491	83765.25
838.74	82837.25
838.989	81575.25
839.238	81047.25
839.487	80287.25
839.736	79748.25
839.984	79318.25
840.233	78500.25
840.482	78525.25
840.73	78505.25
840.979	78231.25
841.227	77652.25
841.476	77502.25
841.724	77057.25
841.972	77236.25
842.221	76672.25
842.469	76602.25
842.717	76099.25
842.965	75919.25
843.213	75747.25
843.461	75606.25
843.71	75179.25
843.958	75055.25
844.205	74668.25
844.453	74692.25
844.701	74548.25
844.949	74201.25
845.197	74279.25
845.445	74179.25
845.692	74419.25
845.94	74461.25
846.188	74312.25
846.435	74203.25
846.683	73970.25
846.93	73782.25
847.178	73420.25
847.425	72739.25
847.672	72329.25
847.92	71546.25
848.167	70984.25
848.414	70291.25
848.661	69951.25
848.908	69624.25
849.155	69360.25
849.402	69394.25
849.649	69436.25
849.896	69672.25
850.143	70153.25
850.39	70279.25
850.637	70298.25
850.884	70103.25
851.131	69925.25
851.377	69669.25
851.624	69423.25
851.87	69060.25
852.117	68561.25
852.364	68352.25
852.61	68178.25
852.856	68012.25
853.103	67752.25
853.349	67439.25
853.595	67084.25
853.842	66708.25
854.088	66712.25
854.334	66543.25
854.58	66403.25
854.826	66033.25
855.072	65634.25
855.318	65093.25
855.564	64375.25
855.81	64232.25
856.056	63631.25
856.302	62927.25
856.548	62667.25
856.793	62170.25
857.039	61794.25
857.285	61512.25
857.53	61558.25
857.776	61804.25
858.021	61749.25
858.267	62058.25
858.512	62147.25
858.758	62224.25
859.003	62254.25
859.248	62079.25
859.493	62013.25
859.739	61807.25
859.984	61704.25
860.229	61404.25
860.474	60934.25
860.719	60525.25
860.964	60184.25
861.209	59845.25
861.454	59361.25
861.699	58982.25
861.943	58670.25
862.188	58309.25
862.433	58213.25
862.678	57944.25
862.922	57903.25
863.167	57735.25
863.411	57640.25
863.656	57423.25
863.9	56933.25
864.145	57011.25
864.389	56357.25
864.634	56310.25
864.878	56143.25
865.122	56088.25
865.366	55890.25
865.61	55532.25
865.855	55558.25
866.099	55336.25
866.343	55199.25
866.587	55217.25
866.831	55055.25
867.074	55134.25
867.318	55167.25
867.562	55116.25
867.806	55141.25
868.05	55055.25
868.293	54706.25
868.537	54607.25
868.78	54218.25
869.024	54131.25
869.267	53658.25
869.511	53241.25
869.754	52878.25
869.998	52204.25
870.241	51722.25
870.484	51387.25
870.728	51102.25
870.971	50720.25
871.214	50509.25
871.457	50547.25
871.7	50136.25
871.943	50308.25
872.186	50355.25
872.429	50401.25
872.672	50152.25
872.915	50087.25
873.158	49990.25
873.4	50106.25
873.643	49843.25
873.886	49809.25
874.128	49543.25
874.371	49269.25
874.613	49414.25
874.856	49099.25
875.098	48882.25
875.341	48850.25
875.583	48573.25
875.825	48543.25
876.068	48069.25
876.31	47710.25
876.552	47441.25
876.794	47054.25
877.036	46575.25
877.278	46146.25
877.52	46192.25
877.762	45735.25
878.004	45747.25
878.246	45649.25
878.488	45597.25
878.73	45634.25
878.972	45333.25
879.213	45306.25
879.455	45230.25
879.697	45027.25
879.938	44914.25
880.18	44768.25
880.421	44605.25
880.663	44637.25
880.904	44494.25
881.145	44735.25
881.387	44709.25
881.628	44653.25
881.869	44224.25
882.11	43985.25
882.352	43891.25
882.593	43816.25
882.834	43537.25
883.075	43662.25
883.316	43348.25
883.557	43214.25
883.797	42917.25
884.038	42821.25
884.279	42152.25
884.52	41497.25
884.761	41190.25
885.001	40795.25
885.242	40485.25
885.482	40129.25
885.723	39959.25
885.963	39896.25
886.204	39593.25
886.444	39594.25
886.685	39467.25
886.925	39215.25
887.165	39017.25
887.405	38798.25
887.646	38779.25
887.886	38472.25
888.126	38481.25
888.366	38503.25
888.606	38433.25
888.846	38580.25
889.086	38581.25
889.326	38628.25
889.565	38542.25
889.805	38619.25
890.045	38374.25
890.285	38242.25
890.524	38214.25
890.764	37992.25
891.003	37574.25
891.243	37068.25
891.482	36852.25
891.722	36542.25
891.961	36527.25
892.201	36098.25
892.44	35862.25
892.679	35643.25
892.918	35567.25
893.158	35441.25
893.397	35358.25
893.636	35125.25
893.875	34919.25
894.114	34840.25
894.353	34923.25
894.592	34701.25
894.831	34495.25
895.069	34348.25
895.308	34110.25
895.547	33874.25
895.786	33802.25
896.024	33482.25
896.263	33660.25
896.501	33464.25
896.74	33298.25
896.978	33290.25
897.217	33139.25
897.455	33209.25
897.694	33034.25
897.932	32807.25
898.17	32853.25
898.408	32701.25
898.646	32610.25
898.885	32396.25
899.123	32220.25
899.361	31986.25
899.599	31676.25
899.837	31651.25
900.075	31319.25
900.312	31001.25
900.55	30782.25
900.788	30472.25
901.026	30285.25
901.263	29963.25
901.501	29848.25
901.739	29538.25
901.976	29441.25
902.214	29301.25
902.451	29072.25
902.689	29096.25
902.926	29165.25
903.163	28873.25
903.401	29055.25
903.638	28937.25
903.875	28959.25
904.112	28846.25
904.349	28827.25
904.586	28733.25
904.823	28627.25
905.06	28522.25
905.297	28173.25
905.534	27901.25
905.771	27785.25
906.008	27526.25
906.245	27332.25
906.481	27306.25
906.718	26886.25
906.955	26879.25
907.191	26889.25
907.428	26639.25
907.664	26549.25
907.901	26472.25
908.137	26231.25
908.374	26231.25
908.61	26155.25
908.846	25888.25
909.083	25786.25
909.319	25631.25
909.555	25461.25
909.791	25260.25
910.027	25055.25
910.263	24809.25
910.499	24687.25
910.735	24514.25
910.971	24187.25
911.207	24116.25
911.443	23966.25
911.678	23883.25
911.914	23844.25
912.15	23781.25
912.385	23652.25
912.621	23585.25
912.857	23657.25
913.092	23680.25
913.328	23532.25
913.563	23517.25
913.798	23415.25
914.034	23402.25
914.269	23336.25
914.504	23280.25
914.739	23087.25
914.975	22967.25
915.21	22825.25
915.445	22630.25
915.68	22473.25
915.915	22224.25
916.15	22050.25
916.384	21632.25
916.619	21453.25
916.854	21216.25
917.089	21212.25
917.324	21048.25
917.558	20987.25
917.793	20794.25
918.028	20610.25
918.262	20568.25
918.497	20557.25
918.731	20512.25
918.965	20415.25
919.2	20437.25
919.434	20483.25
919.668	20378.25
919.903	20355.25
920.137	20215.25
920.371	20117.25
920.605	19975.25
920.839	19896.25
921.073	19630.25
921.307	19475.25
921.541	19375.25
921.775	19251.25
922.009	19139.25
922.243	19045.25
922.476	18954.25
922.71	18943.25
922.944	19007.25
923.177	18986.25
923.411	18965.25
923.644	18952.25
923.878	18829.25
924.111	18721.25
924.345	18642.25
924.578	18648.25
924.811	18446.25
925.045	18306.25
925.278	18242.25
925.511	18138.25
925.744	17979.25
925.977	17824.25
926.21	17693.25
926.443	17539.25
926.676	17434.25
926.909	17291.25
927.142	17149.25
927.375	16860.25
927.608	16842.25
927.841	16791.25
928.073	16686.25
928.306	16680.25
928.539	16661.25
928.771	16743.25
929.004	16577.25
929.236	16623.25
929.469	16576.25
929.701	16589.25
929.933	16638.25
930.166	16605.25
930.398	16530.25
930.63	16487.25
930.862	16429.25
931.094	16415.25
931.327	16217.25
931.559	15990.25
931.791	15921.25
932.023	16035.25
932.255	15789.25
932.486	15590.25
932.718	15594.25
932.95	15374.25
933.182	15336.25
933.413	15198.25
933.645	15210.25
933.877	15194.25
934.108	15057.25
934.34	15010.25
934.571	15000.25
934.803	14909.25
935.034	14888.25
935.265	14746.25
935.497	14765.25
935.728	14671.25
935.959	14680.25
936.19	14529.25
936.422	14410.25
936.653	14319.25
936.884	14314.25
937.115	14184.25
937.346	14109.25
937.577	14003.25
937.807	13932.25
938.038	13882.25
938.269	13856.25
938.5	13695.25
938.73	13689.25
938.961	13744.25
939.192	13724.25
939.422	13740.25
939.653	13648.25
939.883	13637.25
940.114	13572.25
940.344	13575.25
940.574	13478.25
940.805	13348.25
941.035	13371.25
941.265	13242.25
941.495	13085.25
941.726	13090.25
941.956	12962.25
942.186	12879.25
942.416	12728.25
942.646	12604.25
942.876	12547.25
943.105	12398.25
943.335	12295.25
943.565	12216.25
943.795	12114.25
944.024	12004.25
944.254	12006.25
944.484	11920.25
944.713	11793.25
944.943	11783.25
945.172	11749.25
945.402	11727.25
945.631	11730.25
945.86	11624.25
946.09	11653.25
946.319	11587.25
946.548	11622.25
946.777	11582.25
947.006	11512.25
947.235	11434.25
947.465	11457.25
947.694	11290.25
947.922	11271.25
948.151	11191.25
948.38	11060.25
948.609	10982.25
948.838	10961.25
949.067	10852.25
949.295	10740.25
949.524	10699.25
949.752	10666.25
949.981	10562.25
950.21	10511.25
950.438	10491.25
950.666	10422.25
950.895	10350.25
951.123	10201.25
951.351	10219.25
951.58	10020.25
951.808	10082.25
952.036	10023.25
952.264	10000.25
952.492	10000.25
952.72	9892.25
952.948	9842.25
953.176	9827.25
953.404	9636.25
953.632	9602.25
953.86	9506.25
954.088	9447.25
954.315	9350.25
954.543	9244.25
954.771	9291.25
954.998	9227.25
955.226	9160.25
955.453	9174.25
955.681	9140.25
955.908	9067.25
956.135	9069.25
956.363	9068.25
956.59	9011.25
956.817	8937.25
957.045	8974.25
957.272	8943.25
957.499	8796.25
957.726	8819.25
957.953	8810.25
958.18	8778.25
958.407	8746.25
958.634	8673.25
958.861	8582.25
959.087	8537.25
959.314	8415.25
959.541	8423.25
959.767	8349.25
959.994	8250.25
960.221	8160.25
960.447	8092.25
960.674	8070.25
960.9	8027.25
961.127	8048.25
961.353	7910.25
961.579	7851.25
961.806	7832.25
962.032	7803.25
962.258	7666.25
962.484	7691.25
962.71	7706.25
962.936	7701.25
963.162	7658.25
963.388	7681.25
963.614	7610.25
963.84	7582.25
964.066	7545.25
964.292	7577.25
964.518	7521.25
964.743	7471.25
964.969	7414.25
965.195	7403.25
965.42	7321.25
965.646	7340.25
965.871	7248.25
966.097	7211.25
966.322	7181.25
966.547	7182.25
966.773	7113.25
966.998	7079.25
967.223	7065.25
967.448	7001.25
967.674	6923.25
967.899	6921.25
968.124	6855.25
968.349	6860.25
968.574	6797.25
968.799	6707.25
969.024	6723.25
969.248	6687.25
969.473	6609.25
969.698	6578.25
969.923	6560.25
970.147	6527.25
970.372	6438.25
970.596	6486.25
970.821	6380.25
971.046	6366.25
971.27	6369.25
971.494	6236.25
971.719	6217.25
971.943	6218.25
972.167	6180.25
972.392	6109.25
972.616	6100.25
972.84	6070.25
973.064	6002.25
973.288	5952.25
973.512	5972.25
973.736	5905.25
973.96	5921.25
974.184	5872.25
974.408	5808.25
974.631	5865.25
974.855	5838.25
975.079	5848.25
975.303	5767.25
975.526	5747.25
975.75	5733.25
975.973	5713.25
976.197	5673.25
976.42	5675.25
976.644	5630.25
976.867	5547.25
977.09	5519.25
977.313	5509.25
977.537	5450.25
977.76	5369.25
977.983	5384.25
978.206	5338.25
978.429	5288.25
978.652	5252.25
978.875	5201.25
979.098	5166.25
979.321	5164.25
979.544	5100.25
979.767	5049.25
979.989	5035.25
980.212	5047.25
980.435	5008.25
980.657	4938.25
980.88	4937.25
981.102	4874.25
981.325	4898.25
981.547	4824.25
981.77	4877.25
981.992	4828.25
982.214	4750.25
982.437	4754.25
982.659	4693.25
982.881	4717.25
983.103	4729.25
983.325	4649.25
983.547	4694.25
983.769	4640.25
983.991	4612.25
984.213	4607.25
984.435	4570.25
984.657	4578.25
984.879	4533.25
985.1	4516.25
985.322	4469.25
985.544	4398.25
985.765	4438.25
985.987	4406.25
986.208	4359.25
986.43	4377.25
986.651	4345.25
986.873	4264.25
987.094	4266.25
987.315	4256.25
987.536	4240.25
987.758	4183.25
987.979	4180.25
988.2	4161.25
988.421	4098.25
988.642	4081.25
988.863	4036.25
989.084	4002.25
989.305	4002.25
989.526	4013.25
989.747	3992.25
989.967	3967.25
990.188	3907.25
990.409	3880.25
990.629	3861.25
990.85	3809.25
991.071	3820.25
991.291	3799.25
991.512	3756.25
991.732	3758.25
991.952	3748.25
992.173	3685.25
992.393	3711.25
992.613	3699.25
992.834	3691.25
993.054	3669.25
993.274	3680.25
993.494	3638.25
993.714	3617.25
993.934	3581.25
994.154	3607.25
994.374	3580.25
994.594	3549.25
994.813	3527.25
995.033	3517.25
995.253	3549.25
995.473	3528.25
995.692	3419.25
995.912	3428.25
996.131	3419.25
996.351	3439.25
996.57	3371.25
996.79	3358.25
997.009	3285.25
997.228	3307.25
997.448	3277.25
997.667	3199.25
997.886	3186.25
998.105	3156.25
998.325	3128.25
998.544	3136.25
998.763	3101.25
998.982	3073.25
999.201	3062.25
999.419	2994.25
999.638	2998.25
999.857	3006.25
1000.076	3043.25
1000.295	2964.25
1000.513	2994.25
1000.732	2957.25
1000.95	2933.25
1001.169	2947.25
1001.388	2927.25
1001.606	2912.25
1001.824	2881.25
1002.043	2868.25
1002.261	2889.25
1002.479	2884.25
1002.698	2844.25
1002.916	2838.25
1003.134	2835.25
1003.352	2771.25
1003.57	2772.25
1003.788	2799.25
1004.006	2778.25
1004.224	2777.25
1004.442	2733.25
1004.66	2751.25
1004.878	2711.25
1005.095	2722.25
1005.313	2710.25
1005.531	2718.25
1005.748	2643.25
1005.966	2779.25
1006.184	2669.25
1006.401	2656.25
1006.618	2686.25
1006.836	2620.25
1007.053	2642.25
1007.271	2641.25
1007.488	2656.25
1007.705	2650.25
1007.922	2612.25
1008.139	2612.25
1008.357	2604.25
1008.574	2627.25
1008.791	2636.25
1009.008	2709.25
1009.225	2671.25
1009.441	2750.25
1009.658	2746.25
1009.875	2771.25
1010.092	2712.25
1010.309	2716.25
1010.525	2690.25
1010.742	2624.25
1010.958	2611.25
1011.175	2645.25
1011.391	2580.25
1011.608	2586.25
1011.824	2541.25
1012.041	2511.25
1012.257	2490.25
1012.473	2477.25
1012.689	2415.25
1012.906	2424.25
1013.122	2411.25
1013.338	2411.25
1013.554	2426.25
1013.77	2457.25
1013.986	2448.25
1014.202	2484.25
1014.418	2553.25
1014.634	2597.25
1014.849	2603.25
1015.065	2677.25
1015.281	2673.25
1015.496	2676.25
1015.712	2632.25
1015.928	2575.25
1016.143	2485.25
1016.359	2446.25
1016.574	2436.25
1016.79	2346.25
1017.005	2274.25
1017.22	2259.25
1017.435	2200.25
1017.651	2152.25
1017.866	2135.25
1018.081	2076.25
1018.296	2012.25
1018.511	2008.25
1018.726	2032.25
1018.941	1991.25
1019.156	1984.25
1019.371	1914.25
1019.586	1935.25
1019.801	1960.25
1020.015	1922.25
1020.23	1906.25
1020.445	1920.25
1020.659	1872.25
1020.874	1876.25
1021.088	1841.25
1021.303	1764.25
1021.517	1744.25
1021.732	1736.25
1021.946	1717.25
1022.16	1722.25
1022.375	1675.25
1022.589	1653.25
1022.803	1588.25
1023.017	1616.25
1023.231	1531.25
1023.445	1543.25
1023.659	1480.25
1023.873	1475.25
1024.087	1425.25
1024.301	1428.25
1024.515	1397.25
1024.729	1373.25
1024.942	1341.25
1025.156	1342.25
1025.37	1298.25
1025.583	1291.25
1025.797	1241.25
1026.01	1223.25
1026.224	1192.25
1026.437	1164.25
1026.651	1127.25
1026.864	1115.25
1027.077	1081.25
1027.291	1066.25
1027.504	1045.25
1027.717	1032.25
1027.93	992.25
1028.143	970.25
1028.356	930.25
1028.569	889.25
1028.782	823.25
1028.995	-2.75
1029.208	-1.75
1029.421	-2.75
1029.634	-0.75
