Data from QEP037381__372__15-45-11-567.txt Node

Date: Mon Mar 14 15:45:11 EDT 2022
User: dcclab
Spectrometer: QEP03738
Trigger mode: 4
Integration Time (sec): 2.500000E0
Scans to average: 1
Electric dark correction enabled: true
Nonlinearity correction enabled: false
Boxcar width: 0
XAxis mode: Wavelengths
Number of Pixels in Spectrum: 1044
>>>>>Begin Spectral Data<<<<<
783.959	13
784.218	-1
784.476	-2
784.734	-4
784.992	293
785.251	285
785.509	255
785.767	264
786.025	265
786.283	249
786.541	243
786.798	255
787.056	247
787.314	230
787.572	257
787.83	244
788.087	247
788.345	237
788.602	252
788.86	245
789.117	252
789.375	242
789.632	243
789.89	241
790.147	260
790.404	253
790.661	254
790.919	258
791.176	261
791.433	252
791.69	272
791.947	269
792.204	254
792.461	280
792.718	283
792.974	286
793.231	300
793.488	324
793.745	311
794.001	346
794.258	352
794.514	356
794.771	384
795.027	384
795.284	403
795.54	430
795.797	442
796.053	498
796.309	508
796.565	567
796.822	622
797.078	711
797.334	826
797.59	967
797.846	1220
798.102	1584
798.358	2090
798.614	2963
798.869	4315
799.125	6366
799.381	9358
799.637	13204
799.892	17927
800.148	23051
800.403	28044
800.659	32396
800.914	35865
801.17	38121
801.425	39604
801.68	40692
801.936	41707
802.191	42651
802.446	43545
802.701	44572
802.957	45491
803.212	46356
803.467	47154
803.722	48298
803.977	49149
804.232	49960
804.486	51130
804.741	52228
804.996	52887
805.251	54103
805.505	55087
805.76	56005
806.015	56939
806.269	57683
806.524	58243
806.778	58861
807.033	59404
807.287	59967
807.541	60906
807.796	61735
808.05	62536
808.304	62909
808.558	63516
808.812	63911
809.066	64398
809.32	64801
809.574	65335
809.828	65755
810.082	66184
810.336	66816
810.59	67284
810.844	68311
811.097	69272
811.351	70159
811.605	71317
811.858	72215
812.112	73443
812.365	74815
812.619	75902
812.872	77037
813.126	78062
813.379	78978
813.632	79960
813.885	81235
814.139	82352
814.392	83730
814.645	85068
814.898	86540
815.151	88126
815.404	89825
815.657	91205
815.91	92869
816.163	93829
816.416	94787
816.668	95553
816.921	96013
817.174	96620
817.426	96432
817.679	96417
817.931	96587
818.184	96493
818.436	96466
818.689	96638
818.941	96840
819.194	97039
819.446	97373
819.698	97924
819.95	98517
820.202	98719
820.455	98979
820.707	99434
820.959	99867
821.211	99582
821.462	99334
821.714	99411
821.966	98831
822.218	98528
822.47	98076
822.722	97736
822.973	97315
823.225	97176
823.476	96911
823.728	96988
823.979	97059
824.231	96845
824.482	96919
824.734	97193
824.985	97024
825.236	97015
825.487	96951
825.739	96670
825.99	96222
826.241	95785
826.492	95404
826.743	95037
826.994	94431
827.245	94067
827.496	94099
827.747	94029
827.997	93939
828.248	94070
828.499	94085
828.75	93916
829	93973
829.251	93750
829.501	93754
829.752	93436
830.002	92914
830.253	92298
830.503	91844
830.753	91367
831.004	90864
831.254	90664
831.504	90471
831.754	89989
832.004	89808
832.254	90053
832.504	89879
832.754	89968
833.004	90018
833.254	89763
833.504	89390
833.754	89383
834.003	89023
834.253	88711
834.503	88228
834.752	87645
835.002	87198
835.252	86930
835.501	86330
835.75	86200
836	86152
836.249	86131
836.499	85909
836.748	85803
836.997	85742
837.246	86134
837.495	86267
837.744	86788
837.993	87069
838.242	87373
838.491	87136
838.74	86519
838.989	85247
839.238	84548
839.487	83864
839.736	83286
839.984	82695
840.233	82378
840.482	82132
840.73	81828
840.979	81248
841.227	81274
841.476	80973
841.724	80616
841.972	80377
842.221	80094
842.469	79844
842.717	79541
842.965	79334
843.213	79101
843.461	78989
843.71	78475
843.958	78214
844.205	78189
844.453	77966
844.701	77805
844.949	77668
845.197	77675
845.445	77491
845.692	77627
845.94	77618
846.188	77615
846.435	77489
846.683	77204
846.93	77136
847.178	76474
847.425	75952
847.672	75414
847.92	74762
848.167	73999
848.414	73506
848.661	72892
848.908	72565
849.155	72312
849.402	72428
849.649	72557
849.896	72941
850.143	73045
850.39	73582
850.637	73184
850.884	73028
851.131	72839
851.377	72644
851.624	72442
851.87	72176
852.117	71655
852.364	71459
852.61	71033
852.856	70848
853.103	70458
853.349	70381
853.595	70095
853.842	69524
854.088	69642
854.334	69416
854.58	69127
854.826	68912
855.072	68681
855.318	67915
855.564	67453
855.81	66727
856.056	66242
856.302	65738
856.548	65239
856.793	64920
857.039	64756
857.285	64155
857.53	64239
857.776	64222
858.021	64413
858.267	64713
858.512	64953
858.758	64970
859.003	64858
859.248	64855
859.493	64727
859.739	64616
859.984	64142
860.229	63990
860.474	63570
860.719	62993
860.964	62698
861.209	62186
861.454	62037
861.699	61627
861.943	61251
862.188	60807
862.433	60796
862.678	60538
862.922	60407
863.167	60434
863.411	60060
863.656	59795
863.9	59681
864.145	59407
864.389	58900
864.634	58903
864.878	58834
865.122	58231
865.366	58284
865.61	57967
865.855	57936
866.099	57795
866.343	57752
866.587	57396
866.831	57601
867.074	57584
867.318	57573
867.562	57431
867.806	57472
868.05	57173
868.293	56977
868.537	56838
868.78	56690
869.024	56449
869.267	56054
869.511	55499
869.754	54961
869.998	54411
870.241	53789
870.484	53807
870.728	53294
870.971	52805
871.214	52687
871.457	52405
871.7	52471
871.943	52462
872.186	52565
872.429	52629
872.672	52460
872.915	52308
873.158	52051
873.4	52254
873.643	52107
873.886	51739
874.128	51613
874.371	51458
874.613	51327
874.856	51097
875.098	50989
875.341	50905
875.583	50799
875.825	50490
876.068	50179
876.31	49734
876.552	49603
876.794	49019
877.036	48526
877.278	48148
877.52	47998
877.762	47836
878.004	47563
878.246	47543
878.488	47615
878.73	47442
878.972	47309
879.213	47154
879.455	47072
879.697	46991
879.938	46743
880.18	46636
880.421	46684
880.663	46295
880.904	46473
881.145	46393
881.387	46633
881.628	46311
881.869	46194
882.11	46002
882.352	45789
882.593	45574
882.834	45692
883.075	45291
883.316	45291
883.557	45002
883.797	44788
884.038	44282
884.279	43834
884.52	43378
884.761	42947
885.001	42556
885.242	42168
885.482	41954
885.723	41648
885.963	41572
886.204	41324
886.444	41195
886.685	41081
886.925	40700
887.165	40667
887.405	40358
887.646	40339
887.886	40075
888.126	40148
888.366	40155
888.606	40127
888.846	40043
889.086	40222
889.326	40054
889.565	39967
889.805	40108
890.045	39921
890.285	39842
890.524	39741
890.764	39478
891.003	39182
891.243	38842
891.482	38478
891.722	38185
891.961	37986
892.201	37737
892.44	37405
892.679	37092
892.918	36962
893.158	36997
893.397	36896
893.636	36640
893.875	36426
894.114	36280
894.353	36365
894.592	36156
894.831	35947
895.069	35830
895.308	35454
895.547	35317
895.786	35169
896.024	35020
896.263	34883
896.501	34732
896.74	34762
896.978	34661
897.217	34647
897.455	34461
897.694	34338
897.932	34380
898.17	34166
898.408	34025
898.646	33959
898.885	33713
899.123	33565
899.361	33264
899.599	33175
899.837	32919
900.075	32666
900.312	32348
900.55	32255
900.788	31825
901.026	31450
901.263	31258
901.501	31062
901.739	30886
901.976	30629
902.214	30573
902.451	30257
902.689	30317
902.926	30210
903.163	30190
903.401	30207
903.638	30049
903.875	30142
904.112	30155
904.349	29973
904.586	29884
904.823	29761
905.06	29544
905.297	29229
905.534	29078
905.771	28875
906.008	28772
906.245	28470
906.481	28358
906.718	28118
906.955	28098
907.191	27957
907.428	27809
907.664	27653
907.901	27454
908.137	27380
908.374	27305
908.61	27158
908.846	26902
909.083	26844
909.319	26735
909.555	26532
909.791	26210
910.027	25981
910.263	25855
910.499	25631
910.735	25485
910.971	25202
911.207	25222
911.443	24996
911.678	24838
911.914	24646
912.15	24749
912.385	24619
912.621	24660
912.857	24653
913.092	24486
913.328	24520
913.563	24413
913.798	24428
914.034	24338
914.269	24298
914.504	24129
914.739	24063
914.975	23911
915.21	23682
915.445	23653
915.68	23298
915.915	23285
916.15	22808
916.384	22530
916.619	22408
916.854	22303
917.089	22170
917.324	21840
917.558	21759
917.793	21718
918.028	21460
918.262	21440
918.497	21361
918.731	21384
918.965	21390
919.2	21298
919.434	21308
919.668	21267
919.903	21166
920.137	21086
920.371	21027
920.605	20790
920.839	20547
921.073	20483
921.307	20279
921.541	20100
921.775	20098
922.009	20039
922.243	19989
922.476	19779
922.71	19842
922.944	19808
923.177	19703
923.411	19833
923.644	19778
923.878	19682
924.111	19500
924.345	19348
924.578	19329
924.811	19227
925.045	19102
925.278	19022
925.511	18846
925.744	18712
925.977	18636
926.21	18462
926.443	18270
926.676	18042
926.909	17966
927.142	17768
927.375	17685
927.608	17507
927.841	17483
928.073	17384
928.306	17340
928.539	17425
928.771	17353
929.004	17259
929.236	17328
929.469	17292
929.701	17304
929.933	17292
930.166	17271
930.398	17233
930.63	17157
930.862	17098
931.094	16973
931.327	16925
931.559	16765
931.791	16635
932.023	16546
932.255	16464
932.486	16282
932.718	16250
932.95	16035
933.182	16015
933.413	15988
933.645	15831
933.877	15727
934.108	15679
934.34	15614
934.571	15508
934.803	15524
935.034	15437
935.265	15456
935.497	15330
935.728	15318
935.959	15207
936.19	15164
936.422	15042
936.653	14899
936.884	14836
937.115	14774
937.346	14684
937.577	14567
937.807	14389
938.038	14418
938.269	14402
938.5	14321
938.73	14295
938.961	14224
939.192	14280
939.422	14218
939.653	14332
939.883	14154
940.114	14112
940.344	14071
940.574	14151
940.805	14006
941.035	13821
941.265	13819
941.495	13647
941.726	13574
941.956	13542
942.186	13389
942.416	13319
942.646	13209
942.876	13010
943.105	12945
943.335	12929
943.565	12773
943.795	12561
944.024	12614
944.254	12433
944.484	12417
944.713	12325
944.943	12259
945.172	12195
945.402	12142
945.631	12168
945.86	12105
946.09	12089
946.319	12119
946.548	11990
946.777	11989
947.006	11859
947.235	11924
947.465	11871
947.694	11750
947.922	11652
948.151	11580
948.38	11487
948.609	11406
948.838	11343
949.067	11290
949.295	11099
949.524	11119
949.752	11062
949.981	11066
950.21	10843
950.438	10879
950.666	10782
950.895	10678
951.123	10721
951.351	10557
951.58	10518
951.808	10375
952.036	10418
952.264	10395
952.492	10279
952.72	10269
952.948	10246
953.176	10197
953.404	10050
953.632	9979
953.86	9901
954.088	9779
954.315	9714
954.543	9708
954.771	9689
954.998	9546
955.226	9549
955.453	9477
955.681	9465
955.908	9399
956.135	9436
956.363	9318
956.59	9367
956.817	9307
957.045	9239
957.272	9279
957.499	9127
957.726	9141
957.953	9112
958.18	9090
958.407	8959
958.634	9004
958.861	8909
959.087	8868
959.314	8783
959.541	8755
959.767	8659
959.994	8574
960.221	8557
960.447	8472
960.674	8384
960.9	8320
961.127	8267
961.353	8224
961.579	8201
961.806	8110
962.032	8085
962.258	8029
962.484	8008
962.71	7980
962.936	7992
963.162	7951
963.388	7875
963.614	7896
963.84	7825
964.066	7843
964.292	7796
964.518	7787
964.743	7700
964.969	7721
965.195	7717
965.42	7662
965.646	7535
965.871	7578
966.097	7507
966.322	7463
966.547	7366
966.773	7437
966.998	7297
967.223	7300
967.448	7274
967.674	7226
967.899	7106
968.124	7065
968.349	7132
968.574	6991
968.799	7033
969.024	6928
969.248	6901
969.473	6842
969.698	6844
969.923	6759
970.147	6757
970.372	6746
970.596	6705
970.821	6664
971.046	6623
971.27	6566
971.494	6509
971.719	6464
971.943	6450
972.167	6372
972.392	6325
972.616	6287
972.84	6253
973.064	6180
973.288	6163
973.512	6234
973.736	6129
973.96	6121
974.184	6085
974.408	6053
974.631	6105
974.855	6051
975.079	6004
975.303	5972
975.526	5953
975.75	5908
975.973	5913
976.197	5877
976.42	5875
976.644	5767
976.867	5784
977.09	5739
977.313	5628
977.537	5622
977.76	5585
977.983	5589
978.206	5519
978.429	5478
978.652	5492
978.875	5357
979.098	5363
979.321	5317
979.544	5271
979.767	5287
979.989	5244
980.212	5159
980.435	5139
980.657	5130
980.88	5109
981.102	5080
981.325	5061
981.547	5045
981.77	5012
981.992	4996
982.214	4972
982.437	4965
982.659	4927
982.881	4888
983.103	4862
983.325	4835
983.547	4822
983.769	4778
983.991	4740
984.213	4772
984.435	4730
984.657	4707
984.879	4707
985.1	4723
985.322	4633
985.544	4585
985.765	4555
985.987	4528
986.208	4550
986.43	4512
986.651	4513
986.873	4491
987.094	4487
987.315	4395
987.536	4350
987.758	4333
987.979	4272
988.2	4331
988.421	4262
988.642	4186
988.863	4176
989.084	4115
989.305	4133
989.526	4105
989.747	4082
989.967	4089
990.188	4023
990.409	4029
990.629	3991
990.85	3970
991.071	3933
991.291	3935
991.512	3921
991.732	3874
991.952	3876
992.173	3866
992.393	3822
992.613	3761
992.834	3794
993.054	3800
993.274	3775
993.494	3756
993.714	3801
993.934	3739
994.154	3733
994.374	3720
994.594	3678
994.813	3637
995.033	3664
995.253	3658
995.473	3627
995.692	3591
995.912	3573
996.131	3540
996.351	3508
996.57	3493
996.79	3470
997.009	3427
997.228	3386
997.448	3350
997.667	3321
997.886	3302
998.105	3314
998.325	3240
998.544	3285
998.763	3219
998.982	3181
999.201	3168
999.419	3082
999.638	3135
999.857	3106
1000.076	3118
1000.295	3083
1000.513	3059
1000.732	3075
1000.95	3002
1001.169	3038
1001.388	3020
1001.606	2951
1001.824	2951
1002.043	2982
1002.261	2954
1002.479	2965
1002.698	2952
1002.916	2950
1003.134	2899
1003.352	2892
1003.57	2897
1003.788	2877
1004.006	2853
1004.224	2843
1004.442	2822
1004.66	2826
1004.878	2816
1005.095	2822
1005.313	2783
1005.531	2788
1005.748	2779
1005.966	2877
1006.184	2724
1006.401	2761
1006.618	2717
1006.836	2710
1007.053	2720
1007.271	2695
1007.488	2698
1007.705	2707
1007.922	2711
1008.139	2650
1008.357	2702
1008.574	2700
1008.791	2767
1009.008	2778
1009.225	2763
1009.441	2803
1009.658	2776
1009.875	2830
1010.092	2784
1010.309	2797
1010.525	2755
1010.742	2721
1010.958	2629
1011.175	2687
1011.391	2643
1011.608	2655
1011.824	2588
1012.041	2537
1012.257	2559
1012.473	2492
1012.689	2536
1012.906	2506
1013.122	2500
1013.338	2453
1013.554	2459
1013.77	2488
1013.986	2521
1014.202	2548
1014.418	2576
1014.634	2617
1014.849	2651
1015.065	2693
1015.281	2659
1015.496	2696
1015.712	2652
1015.928	2643
1016.143	2543
1016.359	2514
1016.574	2435
1016.79	2421
1017.005	2344
1017.22	2309
1017.435	2225
1017.651	2187
1017.866	2148
1018.081	2105
1018.296	2088
1018.511	2076
1018.726	2067
1018.941	2018
1019.156	2026
1019.371	2019
1019.586	2033
1019.801	2001
1020.015	1972
1020.23	1957
1020.445	1936
1020.659	1901
1020.874	1924
1021.088	1886
1021.303	1835
1021.517	1790
1021.732	1811
1021.946	1758
1022.16	1752
1022.375	1724
1022.589	1698
1022.803	1652
1023.017	1630
1023.231	1615
1023.445	1600
1023.659	1511
1023.873	1522
1024.087	1469
1024.301	1445
1024.515	1438
1024.729	1409
1024.942	1380
1025.156	1370
1025.37	1355
1025.583	1307
1025.797	1272
1026.01	1265
1026.224	1235
1026.437	1205
1026.651	1173
1026.864	1137
1027.077	1129
1027.291	1110
1027.504	1072
1027.717	1026
1027.93	1005
1028.143	987
1028.356	930
1028.569	900
1028.782	869
1028.995	-1
1029.208	-2
1029.421	0
1029.634	-3
