Data from QEP037381__414__15-49-41-570.txt Node

Date: Mon Mar 14 15:49:41 EDT 2022
User: dcclab
Spectrometer: QEP03738
Trigger mode: 4
Integration Time (sec): 2.500000E0
Scans to average: 1
Electric dark correction enabled: true
Nonlinearity correction enabled: false
Boxcar width: 0
XAxis mode: Wavelengths
Number of Pixels in Spectrum: 1044
>>>>>Begin Spectral Data<<<<<
783.959	12.38
784.218	-0.62
784.476	-1.62
784.734	-1.62
784.992	276.38
785.251	257.38
785.509	246.38
785.767	250.38
786.025	249.38
786.283	248.38
786.541	250.38
786.798	249.38
787.056	252.38
787.314	219.38
787.572	243.38
787.83	227.38
788.087	253.38
788.345	248.38
788.602	250.38
788.86	241.38
789.117	249.38
789.375	228.38
789.632	243.38
789.89	247.38
790.147	268.38
790.404	255.38
790.661	260.38
790.919	277.38
791.176	269.38
791.433	271.38
791.69	284.38
791.947	284.38
792.204	267.38
792.461	300.38
792.718	299.38
792.974	296.38
793.231	314.38
793.488	348.38
793.745	335.38
794.001	359.38
794.258	385.38
794.514	380.38
794.771	409.38
795.027	424.38
795.284	433.38
795.54	463.38
795.797	490.38
796.053	538.38
796.309	588.38
796.565	650.38
796.822	713.38
797.078	830.38
797.334	940.38
797.59	1144.38
797.846	1428.38
798.102	1821.38
798.358	2533.38
798.614	3581.38
798.869	5280.38
799.125	7786.38
799.381	11309.38
799.637	16123.38
799.892	21831.38
800.148	27971.38
800.403	34006.38
800.659	39018.38
800.914	42914.38
801.17	45582.38
801.425	47156.38
801.68	48441.38
801.936	49081.38
802.191	50251.38
802.446	51187.38
802.701	52194.38
802.957	53201.38
803.212	54090.38
803.467	55210.38
803.722	56001.38
803.977	56944.38
804.232	58035.38
804.486	58968.38
804.741	60107.38
804.996	61174.38
805.251	61772.38
805.505	62828.38
805.76	63849.38
806.015	64489.38
806.269	65104.38
806.524	65710.38
806.778	66247.38
807.033	66730.38
807.287	67351.38
807.541	68105.38
807.796	69104.38
808.05	69554.38
808.304	70075.38
808.558	70412.38
808.812	70632.38
809.066	71176.38
809.32	71416.38
809.574	71778.38
809.828	72103.38
810.082	72437.38
810.336	72975.38
810.59	73439.38
810.844	74326.38
811.097	75104.38
811.351	76126.38
811.605	77071.38
811.858	77936.38
812.112	79043.38
812.365	80481.38
812.619	81442.38
812.872	82497.38
813.126	83603.38
813.379	84449.38
813.632	85517.38
813.885	86477.38
814.139	87454.38
814.392	88675.38
814.645	89877.38
814.898	91411.38
815.151	92869.38
815.404	94267.38
815.657	95796.38
815.91	97215.38
816.163	98251.38
816.416	99214.38
816.668	99572.38
816.921	99852.38
817.174	100179.38
817.426	100001.38
817.679	100043.38
817.931	99550.38
818.184	99414.38
818.436	99307.38
818.689	99448.38
818.941	99402.38
819.194	99510.38
819.446	99747.38
819.698	99913.38
819.95	100280.38
820.202	100646.38
820.455	100618.38
820.707	101143.38
820.959	100845.38
821.211	100511.38
821.462	100261.38
821.714	100003.38
821.966	99512.38
822.218	98945.38
822.47	98205.38
822.722	97762.38
822.973	97309.38
823.225	97015.38
823.476	96808.38
823.728	96446.38
823.979	96440.38
824.231	96361.38
824.482	96233.38
824.734	96164.38
824.985	96109.38
825.236	96151.38
825.487	95482.38
825.739	94791.38
825.99	94662.38
826.241	94270.38
826.492	93681.38
826.743	92937.38
826.994	92647.38
827.245	92079.38
827.496	91945.38
827.747	91567.38
827.997	91273.38
828.248	91467.38
828.499	91519.38
828.75	91487.38
829	91225.38
829.251	90986.38
829.501	90807.38
829.752	90456.38
830.002	89844.38
830.253	89209.38
830.503	88702.38
830.753	87986.38
831.004	87478.38
831.254	86941.38
831.504	86899.38
831.754	86333.38
832.004	86310.38
832.254	86312.38
832.504	86392.38
832.754	86187.38
833.004	85712.38
833.254	85538.38
833.504	85453.38
833.754	85155.38
834.003	84498.38
834.253	84293.38
834.503	83788.38
834.752	83184.38
835.002	82667.38
835.252	82320.38
835.501	81762.38
835.75	81481.38
836	81418.38
836.249	81199.38
836.499	81026.38
836.748	80976.38
836.997	80775.38
837.246	80670.38
837.495	80935.38
837.744	81129.38
837.993	81239.38
838.242	81250.38
838.491	81059.38
838.74	80251.38
838.989	79409.38
839.238	78898.38
839.487	78384.38
839.736	77634.38
839.984	77441.38
840.233	76871.38
840.482	76454.38
840.73	76295.38
840.979	75844.38
841.227	75746.38
841.476	75204.38
841.724	75174.38
841.972	74899.38
842.221	74528.38
842.469	74221.38
842.717	74079.38
842.965	73854.38
843.213	73391.38
843.461	73083.38
843.71	72812.38
843.958	72522.38
844.205	72368.38
844.453	72000.38
844.701	71913.38
844.949	71949.38
845.197	71878.38
845.445	71814.38
845.692	71745.38
845.94	71724.38
846.188	72006.38
846.435	71715.38
846.683	71327.38
846.93	71117.38
847.178	70803.38
847.425	69994.38
847.672	69627.38
847.92	69114.38
848.167	68388.38
848.414	67783.38
848.661	67132.38
848.908	66943.38
849.155	66743.38
849.402	66605.38
849.649	66471.38
849.896	66856.38
850.143	66839.38
850.39	67419.38
850.637	67262.38
850.884	67041.38
851.131	66835.38
851.377	66794.38
851.624	66705.38
851.87	66221.38
852.117	65724.38
852.364	65495.38
852.61	65231.38
852.856	64939.38
853.103	64771.38
853.349	64350.38
853.595	64048.38
853.842	63803.38
854.088	63587.38
854.334	63769.38
854.58	63618.38
854.826	63241.38
855.072	62956.38
855.318	62439.38
855.564	61878.38
855.81	61269.38
856.056	60787.38
856.302	60065.38
856.548	59807.38
856.793	59546.38
857.039	59204.38
857.285	59140.38
857.53	59073.38
857.776	59351.38
858.021	59184.38
858.267	59398.38
858.512	59583.38
858.758	59748.38
859.003	59624.38
859.248	59753.38
859.493	59544.38
859.739	59339.38
859.984	59220.38
860.229	58706.38
860.474	58259.38
860.719	58073.38
860.964	57688.38
861.209	57188.38
861.454	57151.38
861.699	56555.38
861.943	56374.38
862.188	55982.38
862.433	55784.38
862.678	55598.38
862.922	55558.38
863.167	55355.38
863.411	55328.38
863.656	55025.38
863.9	54785.38
864.145	54676.38
864.389	54362.38
864.634	54383.38
864.878	53951.38
865.122	53790.38
865.366	53467.38
865.61	53346.38
865.855	53232.38
866.099	53251.38
866.343	52944.38
866.587	52881.38
866.831	52794.38
867.074	52734.38
867.318	52750.38
867.562	52780.38
867.806	52631.38
868.05	52582.38
868.293	52272.38
868.537	52290.38
868.78	52078.38
869.024	51980.38
869.267	51609.38
869.511	51138.38
869.754	50736.38
869.998	50222.38
870.241	49662.38
870.484	49490.38
870.728	49047.38
870.971	48768.38
871.214	48508.38
871.457	48176.38
871.7	48390.38
871.943	48421.38
872.186	48507.38
872.429	48450.38
872.672	48487.38
872.915	48391.38
873.158	48173.38
873.4	48126.38
873.643	48043.38
873.886	47801.38
874.128	47602.38
874.371	47446.38
874.613	47208.38
874.856	47186.38
875.098	46988.38
875.341	46887.38
875.583	46811.38
875.825	46598.38
876.068	46245.38
876.31	45864.38
876.552	45522.38
876.794	45134.38
877.036	44677.38
877.278	44564.38
877.52	44318.38
877.762	44126.38
878.004	43905.38
878.246	43811.38
878.488	43911.38
878.73	43680.38
878.972	43741.38
879.213	43704.38
879.455	43592.38
879.697	43466.38
879.938	43282.38
880.18	43051.38
880.421	42966.38
880.663	42887.38
880.904	42727.38
881.145	42580.38
881.387	42691.38
881.628	42715.38
881.869	42596.38
882.11	42420.38
882.352	42214.38
882.593	42174.38
882.834	41978.38
883.075	41662.38
883.316	41585.38
883.557	41619.38
883.797	41509.38
884.038	41120.38
884.279	40478.38
884.52	40258.38
884.761	39743.38
885.001	39333.38
885.242	39110.38
885.482	38845.38
885.723	38644.38
885.963	38481.38
886.204	38436.38
886.444	38085.38
886.685	37992.38
886.925	37813.38
887.165	37750.38
887.405	37482.38
887.646	37243.38
887.886	37195.38
888.126	37124.38
888.366	37318.38
888.606	37187.38
888.846	37159.38
889.086	37219.38
889.326	37401.38
889.565	37305.38
889.805	37246.38
890.045	37038.38
890.285	36942.38
890.524	36806.38
890.764	36759.38
891.003	36439.38
891.243	35960.38
891.482	35599.38
891.722	35368.38
891.961	35182.38
892.201	34991.38
892.44	34654.38
892.679	34465.38
892.918	34334.38
893.158	34262.38
893.397	34246.38
893.636	34139.38
893.875	33938.38
894.114	33655.38
894.353	33560.38
894.592	33537.38
894.831	33396.38
895.069	33100.38
895.308	32868.38
895.547	32575.38
895.786	32490.38
896.024	32417.38
896.263	32374.38
896.501	32330.38
896.74	32263.38
896.978	32125.38
897.217	32144.38
897.455	32028.38
897.694	31766.38
897.932	31741.38
898.17	31631.38
898.408	31501.38
898.646	31406.38
898.885	31145.38
899.123	30992.38
899.361	30683.38
899.599	30597.38
899.837	30487.38
900.075	30204.38
900.312	29873.38
900.55	29820.38
900.788	29570.38
901.026	29160.38
901.263	28981.38
901.501	28689.38
901.739	28414.38
901.976	28259.38
902.214	28205.38
902.451	28164.38
902.689	28009.38
902.926	28123.38
903.163	28034.38
903.401	27944.38
903.638	27952.38
903.875	27948.38
904.112	27728.38
904.349	27926.38
904.586	27677.38
904.823	27534.38
905.06	27346.38
905.297	27157.38
905.534	26862.38
905.771	26693.38
906.008	26647.38
906.245	26404.38
906.481	26277.38
906.718	26075.38
906.955	25930.38
907.191	25880.38
907.428	25692.38
907.664	25623.38
907.901	25524.38
908.137	25494.38
908.374	25268.38
908.61	25156.38
908.846	25055.38
909.083	24867.38
909.319	24763.38
909.555	24612.38
909.791	24427.38
910.027	24210.38
910.263	23993.38
910.499	23943.38
910.735	23637.38
910.971	23431.38
911.207	23307.38
911.443	23184.38
911.678	23062.38
911.914	22977.38
912.15	22882.38
912.385	22929.38
912.621	22810.38
912.857	22817.38
913.092	22766.38
913.328	22626.38
913.563	22620.38
913.798	22644.38
914.034	22562.38
914.269	22375.38
914.504	22257.38
914.739	22294.38
914.975	22163.38
915.21	22032.38
915.445	21730.38
915.68	21592.38
915.915	21520.38
916.15	21269.38
916.384	20965.38
916.619	20721.38
916.854	20510.38
917.089	20509.38
917.324	20147.38
917.558	20065.38
917.793	20097.38
918.028	19912.38
918.262	19822.38
918.497	19787.38
918.731	19817.38
918.965	19866.38
919.2	19753.38
919.434	19685.38
919.668	19667.38
919.903	19547.38
920.137	19493.38
920.371	19398.38
920.605	19266.38
920.839	19090.38
921.073	18955.38
921.307	18788.38
921.541	18635.38
921.775	18649.38
922.009	18648.38
922.243	18383.38
922.476	18429.38
922.71	18432.38
922.944	18400.38
923.177	18308.38
923.411	18234.38
923.644	18245.38
923.878	18050.38
924.111	17977.38
924.345	17887.38
924.578	17854.38
924.811	17749.38
925.045	17610.38
925.278	17507.38
925.511	17416.38
925.744	17272.38
925.977	17143.38
926.21	16993.38
926.443	16894.38
926.676	16769.38
926.909	16590.38
927.142	16511.38
927.375	16236.38
927.608	16266.38
927.841	16152.38
928.073	16036.38
928.306	16029.38
928.539	15961.38
928.771	16033.38
929.004	15880.38
929.236	15901.38
929.469	15892.38
929.701	15913.38
929.933	15891.38
930.166	15885.38
930.398	15791.38
930.63	15714.38
930.862	15702.38
931.094	15676.38
931.327	15507.38
931.559	15438.38
931.791	15339.38
932.023	15209.38
932.255	15099.38
932.486	14980.38
932.718	14985.38
932.95	14810.38
933.182	14724.38
933.413	14638.38
933.645	14528.38
933.877	14435.38
934.108	14453.38
934.34	14386.38
934.571	14303.38
934.803	14213.38
935.034	14166.38
935.265	14090.38
935.497	14117.38
935.728	14023.38
935.959	13949.38
936.19	13991.38
936.422	13833.38
936.653	13736.38
936.884	13631.38
937.115	13534.38
937.346	13463.38
937.577	13403.38
937.807	13237.38
938.038	13306.38
938.269	13196.38
938.5	13121.38
938.73	13114.38
938.961	12999.38
939.192	13158.38
939.422	13069.38
939.653	13074.38
939.883	13051.38
940.114	12925.38
940.344	12916.38
940.574	12807.38
940.805	12767.38
941.035	12797.38
941.265	12627.38
941.495	12495.38
941.726	12430.38
941.956	12384.38
942.186	12251.38
942.416	12131.38
942.646	12007.38
942.876	12006.38
943.105	11848.38
943.335	11756.38
943.565	11595.38
943.795	11468.38
944.024	11502.38
944.254	11395.38
944.484	11324.38
944.713	11305.38
944.943	11185.38
945.172	11145.38
945.402	11053.38
945.631	11141.38
945.86	10987.38
946.09	11157.38
946.319	10960.38
946.548	11004.38
946.777	11024.38
947.006	10884.38
947.235	10885.38
947.465	10829.38
947.694	10650.38
947.922	10682.38
948.151	10558.38
948.38	10480.38
948.609	10425.38
948.838	10311.38
949.067	10270.38
949.295	10191.38
949.524	10148.38
949.752	10036.38
949.981	9988.38
950.21	9975.38
950.438	9846.38
950.666	9753.38
950.895	9778.38
951.123	9675.38
951.351	9616.38
951.58	9487.38
951.808	9466.38
952.036	9508.38
952.264	9426.38
952.492	9447.38
952.72	9296.38
952.948	9258.38
953.176	9116.38
953.404	9132.38
953.632	9028.38
953.86	9027.38
954.088	8825.38
954.315	8788.38
954.543	8788.38
954.771	8719.38
954.998	8675.38
955.226	8610.38
955.453	8618.38
955.681	8553.38
955.908	8519.38
956.135	8522.38
956.363	8546.38
956.59	8475.38
956.817	8437.38
957.045	8449.38
957.272	8359.38
957.499	8320.38
957.726	8308.38
957.953	8305.38
958.18	8216.38
958.407	8130.38
958.634	8162.38
958.861	8069.38
959.087	8016.38
959.314	7921.38
959.541	7931.38
959.767	7916.38
959.994	7814.38
960.221	7761.38
960.447	7605.38
960.674	7634.38
960.9	7517.38
961.127	7518.38
961.353	7432.38
961.579	7343.38
961.806	7411.38
962.032	7294.38
962.258	7260.38
962.484	7203.38
962.71	7226.38
962.936	7193.38
963.162	7158.38
963.388	7101.38
963.614	7144.38
963.84	7165.38
964.066	7153.38
964.292	7059.38
964.518	7056.38
964.743	6981.38
964.969	6937.38
965.195	6898.38
965.42	6900.38
965.646	6832.38
965.871	6808.38
966.097	6723.38
966.322	6741.38
966.547	6713.38
966.773	6688.38
966.998	6594.38
967.223	6635.38
967.448	6538.38
967.674	6527.38
967.899	6463.38
968.124	6445.38
968.349	6451.38
968.574	6352.38
968.799	6353.38
969.024	6262.38
969.248	6250.38
969.473	6248.38
969.698	6185.38
969.923	6169.38
970.147	6155.38
970.372	6113.38
970.596	6064.38
970.821	6057.38
971.046	6027.38
971.27	5946.38
971.494	5919.38
971.719	5870.38
971.943	5819.38
972.167	5740.38
972.392	5761.38
972.616	5682.38
972.84	5714.38
973.064	5617.38
973.288	5630.38
973.512	5571.38
973.736	5602.38
973.96	5521.38
974.184	5524.38
974.408	5538.38
974.631	5539.38
974.855	5465.38
975.079	5468.38
975.303	5419.38
975.526	5436.38
975.75	5434.38
975.973	5356.38
976.197	5372.38
976.42	5343.38
976.644	5294.38
976.867	5246.38
977.09	5177.38
977.313	5213.38
977.537	5097.38
977.76	5063.38
977.983	5078.38
978.206	5048.38
978.429	5030.38
978.652	4947.38
978.875	4925.38
979.098	4889.38
979.321	4900.38
979.544	4815.38
979.767	4771.38
979.989	4746.38
980.212	4786.38
980.435	4694.38
980.657	4659.38
980.88	4667.38
981.102	4699.38
981.325	4653.38
981.547	4534.38
981.77	4614.38
981.992	4569.38
982.214	4511.38
982.437	4517.38
982.659	4478.38
982.881	4494.38
983.103	4481.38
983.325	4410.38
983.547	4404.38
983.769	4433.38
983.991	4355.38
984.213	4349.38
984.435	4375.38
984.657	4301.38
984.879	4305.38
985.1	4261.38
985.322	4243.38
985.544	4168.38
985.765	4198.38
985.987	4142.38
986.208	4120.38
986.43	4148.38
986.651	4126.38
986.873	4082.38
987.094	4056.38
987.315	4038.38
987.536	4007.38
987.758	4004.38
987.979	3970.38
988.2	3924.38
988.421	3938.38
988.642	3890.38
988.863	3866.38
989.084	3848.38
989.305	3780.38
989.526	3799.38
989.747	3762.38
989.967	3755.38
990.188	3701.38
990.409	3702.38
990.629	3631.38
990.85	3681.38
991.071	3632.38
991.291	3614.38
991.512	3546.38
991.732	3570.38
991.952	3536.38
992.173	3488.38
992.393	3490.38
992.613	3477.38
992.834	3489.38
993.054	3484.38
993.274	3442.38
993.494	3428.38
993.714	3410.38
993.934	3425.38
994.154	3459.38
994.374	3407.38
994.594	3395.38
994.813	3368.38
995.033	3380.38
995.253	3351.38
995.473	3371.38
995.692	3262.38
995.912	3257.38
996.131	3273.38
996.351	3216.38
996.57	3195.38
996.79	3160.38
997.009	3147.38
997.228	3148.38
997.448	3093.38
997.667	3059.38
997.886	3029.38
998.105	3042.38
998.325	2979.38
998.544	2947.38
998.763	2942.38
998.982	2920.38
999.201	2902.38
999.419	2882.38
999.638	2895.38
999.857	2852.38
1000.076	2871.38
1000.295	2844.38
1000.513	2865.38
1000.732	2824.38
1000.95	2794.38
1001.169	2830.38
1001.388	2802.38
1001.606	2779.38
1001.824	2747.38
1002.043	2764.38
1002.261	2721.38
1002.479	2751.38
1002.698	2717.38
1002.916	2708.38
1003.134	2668.38
1003.352	2668.38
1003.57	2704.38
1003.788	2671.38
1004.006	2640.38
1004.224	2625.38
1004.442	2610.38
1004.66	2627.38
1004.878	2613.38
1005.095	2586.38
1005.313	2595.38
1005.531	2553.38
1005.748	2538.38
1005.966	2646.38
1006.184	2544.38
1006.401	2506.38
1006.618	2507.38
1006.836	2493.38
1007.053	2520.38
1007.271	2482.38
1007.488	2472.38
1007.705	2503.38
1007.922	2503.38
1008.139	2416.38
1008.357	2475.38
1008.574	2477.38
1008.791	2480.38
1009.008	2456.38
1009.225	2445.38
1009.441	2478.38
1009.658	2499.38
1009.875	2507.38
1010.092	2472.38
1010.309	2462.38
1010.525	2472.38
1010.742	2412.38
1010.958	2361.38
1011.175	2381.38
1011.391	2364.38
1011.608	2337.38
1011.824	2283.38
1012.041	2281.38
1012.257	2299.38
1012.473	2281.38
1012.689	2215.38
1012.906	2212.38
1013.122	2238.38
1013.338	2191.38
1013.554	2213.38
1013.77	2191.38
1013.986	2239.38
1014.202	2215.38
1014.418	2273.38
1014.634	2286.38
1014.849	2295.38
1015.065	2322.38
1015.281	2294.38
1015.496	2331.38
1015.712	2278.38
1015.928	2236.38
1016.143	2207.38
1016.359	2207.38
1016.574	2138.38
1016.79	2101.38
1017.005	2045.38
1017.22	2043.38
1017.435	2004.38
1017.651	2002.38
1017.866	1909.38
1018.081	1892.38
1018.296	1900.38
1018.511	1820.38
1018.726	1840.38
1018.941	1821.38
1019.156	1777.38
1019.371	1774.38
1019.586	1806.38
1019.801	1780.38
1020.015	1728.38
1020.23	1788.38
1020.445	1737.38
1020.659	1737.38
1020.874	1715.38
1021.088	1663.38
1021.303	1645.38
1021.517	1622.38
1021.732	1612.38
1021.946	1593.38
1022.16	1599.38
1022.375	1553.38
1022.589	1534.38
1022.803	1541.38
1023.017	1477.38
1023.231	1458.38
1023.445	1435.38
1023.659	1389.38
1023.873	1388.38
1024.087	1357.38
1024.301	1334.38
1024.515	1307.38
1024.729	1280.38
1024.942	1267.38
1025.156	1257.38
1025.37	1232.38
1025.583	1205.38
1025.797	1173.38
1026.01	1167.38
1026.224	1138.38
1026.437	1126.38
1026.651	1080.38
1026.864	1053.38
1027.077	1039.38
1027.291	992.38
1027.504	987.38
1027.717	936.38
1027.93	940.38
1028.143	905.38
1028.356	879.38
1028.569	840.38
1028.782	771.38
1028.995	-0.62
1029.208	-0.62
1029.421	-1.62
1029.634	-5.62
