Data from QEP037381__405__15-49-19-069.txt Node

Date: Mon Mar 14 15:49:19 EDT 2022
User: dcclab
Spectrometer: QEP03738
Trigger mode: 4
Integration Time (sec): 2.500000E0
Scans to average: 1
Electric dark correction enabled: true
Nonlinearity correction enabled: false
Boxcar width: 0
XAxis mode: Wavelengths
Number of Pixels in Spectrum: 1044
>>>>>Begin Spectral Data<<<<<
783.959	12.12
784.218	-0.88
784.476	-3.88
784.734	-3.88
784.992	276.12
785.251	264.12
785.509	264.12
785.767	255.12
786.025	252.12
786.283	249.12
786.541	257.12
786.798	246.12
787.056	250.12
787.314	245.12
787.572	255.12
787.83	248.12
788.087	264.12
788.345	257.12
788.602	236.12
788.86	252.12
789.117	263.12
789.375	245.12
789.632	247.12
789.89	260.12
790.147	267.12
790.404	270.12
790.661	262.12
790.919	288.12
791.176	280.12
791.433	276.12
791.69	289.12
791.947	281.12
792.204	279.12
792.461	299.12
792.718	309.12
792.974	308.12
793.231	330.12
793.488	347.12
793.745	343.12
794.001	373.12
794.258	383.12
794.514	393.12
794.771	423.12
795.027	442.12
795.284	463.12
795.54	494.12
795.797	513.12
796.053	576.12
796.309	616.12
796.565	669.12
796.822	748.12
797.078	852.12
797.334	996.12
797.59	1190.12
797.846	1484.12
798.102	1910.12
798.358	2602.12
798.614	3747.12
798.869	5446.12
799.125	8065.12
799.381	11871.12
799.637	16822.12
799.892	22755.12
800.148	29234.12
800.403	35532.12
800.659	40692.12
800.914	44647.12
801.17	47683.12
801.425	49415.12
801.68	50734.12
801.936	51622.12
802.191	52538.12
802.446	53684.12
802.701	54847.12
802.957	55998.12
803.212	56670.12
803.467	57766.12
803.722	58759.12
803.977	59735.12
804.232	60797.12
804.486	61826.12
804.741	62918.12
804.996	63958.12
805.251	64872.12
805.505	65792.12
805.76	66731.12
806.015	67349.12
806.269	68152.12
806.524	68827.12
806.778	69265.12
807.033	69810.12
807.287	70472.12
807.541	71123.12
807.796	72169.12
808.05	72747.12
808.304	73149.12
808.558	73270.12
808.812	74011.12
809.066	74485.12
809.32	74971.12
809.574	75185.12
809.828	75506.12
810.082	75674.12
810.336	76449.12
810.59	76990.12
810.844	77769.12
811.097	78605.12
811.351	79580.12
811.605	80422.12
811.858	81599.12
812.112	82985.12
812.365	84093.12
812.619	84997.12
812.872	86172.12
813.126	87211.12
813.379	88466.12
813.632	89279.12
813.885	90380.12
814.139	91353.12
814.392	92708.12
814.645	93671.12
814.898	95391.12
815.151	97123.12
815.404	98646.12
815.657	99944.12
815.91	101650.12
816.163	102447.12
816.416	103404.12
816.668	104109.12
816.921	104475.12
817.174	104874.12
817.426	104512.12
817.679	104345.12
817.931	104116.12
818.184	103841.12
818.436	103642.12
818.689	103722.12
818.941	103936.12
819.194	104089.12
819.446	104057.12
819.698	104327.12
819.95	104680.12
820.202	105075.12
820.455	105397.12
820.707	105436.12
820.959	105186.12
821.211	105151.12
821.462	105041.12
821.714	104498.12
821.966	103855.12
822.218	103300.12
822.47	102671.12
822.722	102257.12
822.973	101406.12
823.225	101152.12
823.476	100966.12
823.728	100827.12
823.979	100779.12
824.231	100386.12
824.482	100561.12
824.734	100543.12
824.985	100227.12
825.236	100097.12
825.487	99774.12
825.739	99018.12
825.99	98710.12
826.241	98354.12
826.492	97523.12
826.743	97257.12
826.994	96627.12
827.245	96159.12
827.496	95852.12
827.747	95485.12
827.997	95112.12
828.248	95278.12
828.499	95520.12
828.75	95264.12
829	94920.12
829.251	94872.12
829.501	94762.12
829.752	94186.12
830.002	93871.12
830.253	93179.12
830.503	92570.12
830.753	91534.12
831.004	90968.12
831.254	90353.12
831.504	90187.12
831.754	90124.12
832.004	89820.12
832.254	89833.12
832.504	89805.12
832.754	89792.12
833.004	89373.12
833.254	89120.12
833.504	88942.12
833.754	88604.12
834.003	88323.12
834.253	87871.12
834.503	87215.12
834.752	86449.12
835.002	86176.12
835.252	85594.12
835.501	85229.12
835.75	84840.12
836	84744.12
836.249	84757.12
836.499	84298.12
836.748	84473.12
836.997	84181.12
837.246	84085.12
837.495	84237.12
837.744	84495.12
837.993	84639.12
838.242	84677.12
838.491	84296.12
838.74	83566.12
838.989	82712.12
839.238	82216.12
839.487	81761.12
839.736	80964.12
839.984	80610.12
840.233	80317.12
840.482	79597.12
840.73	79466.12
840.979	79080.12
841.227	78888.12
841.476	78488.12
841.724	78161.12
841.972	78116.12
842.221	77746.12
842.469	77456.12
842.717	77088.12
842.965	76832.12
843.213	76552.12
843.461	76158.12
843.71	75612.12
843.958	75356.12
844.205	75222.12
844.453	75164.12
844.701	75063.12
844.949	74911.12
845.197	74872.12
845.445	74833.12
845.692	74682.12
845.94	74939.12
846.188	74799.12
846.435	74605.12
846.683	74177.12
846.93	73964.12
847.178	73579.12
847.425	73021.12
847.672	72389.12
847.92	71858.12
848.167	71046.12
848.414	70414.12
848.661	70006.12
848.908	69685.12
849.155	69397.12
849.402	69211.12
849.649	69225.12
849.896	69423.12
850.143	69729.12
850.39	70156.12
850.637	69915.12
850.884	69726.12
851.131	69723.12
851.377	69382.12
851.624	69336.12
851.87	69079.12
852.117	68511.12
852.364	68130.12
852.61	67912.12
852.856	67519.12
853.103	67224.12
853.349	67079.12
853.595	66742.12
853.842	66312.12
854.088	66157.12
854.334	66329.12
854.58	66353.12
854.826	65854.12
855.072	65493.12
855.318	64879.12
855.564	64274.12
855.81	63801.12
856.056	63147.12
856.302	62688.12
856.548	62125.12
856.793	61668.12
857.039	61721.12
857.285	61478.12
857.53	61452.12
857.776	61447.12
858.021	61678.12
858.267	61566.12
858.512	61856.12
858.758	61982.12
859.003	62086.12
859.248	61883.12
859.493	61791.12
859.739	61773.12
859.984	61441.12
860.229	61238.12
860.474	60588.12
860.719	60471.12
860.964	59902.12
861.209	59542.12
861.454	59367.12
861.699	58732.12
861.943	58458.12
862.188	58314.12
862.433	57988.12
862.678	57651.12
862.922	57792.12
863.167	57490.12
863.411	57293.12
863.656	57154.12
863.9	57233.12
864.145	57052.12
864.389	56578.12
864.634	56470.12
864.878	56138.12
865.122	56002.12
865.366	55727.12
865.61	55722.12
865.855	55351.12
866.099	55317.12
866.343	55084.12
866.587	54930.12
866.831	54962.12
867.074	54918.12
867.318	54973.12
867.562	54881.12
867.806	54574.12
868.05	54599.12
868.293	54596.12
868.537	54121.12
868.78	54300.12
869.024	53939.12
869.267	53653.12
869.511	53141.12
869.754	52681.12
869.998	52039.12
870.241	51821.12
870.484	51261.12
870.728	51070.12
870.971	50802.12
871.214	50292.12
871.457	50311.12
871.7	50422.12
871.943	50337.12
872.186	50226.12
872.429	50256.12
872.672	50370.12
872.915	50112.12
873.158	50081.12
873.4	50051.12
873.643	49820.12
873.886	49716.12
874.128	49370.12
874.371	49346.12
874.613	49270.12
874.856	48908.12
875.098	48935.12
875.341	48783.12
875.583	48737.12
875.825	48491.12
876.068	48230.12
876.31	47937.12
876.552	47375.12
876.794	47118.12
877.036	46590.12
877.278	46321.12
877.52	46168.12
877.762	45873.12
878.004	45729.12
878.246	45443.12
878.488	45644.12
878.73	45530.12
878.972	45433.12
879.213	45535.12
879.455	45331.12
879.697	45215.12
879.938	44998.12
880.18	44790.12
880.421	44626.12
880.663	44438.12
880.904	44458.12
881.145	44430.12
881.387	44355.12
881.628	44290.12
881.869	44235.12
882.11	44115.12
882.352	43908.12
882.593	43821.12
882.834	43659.12
883.075	43608.12
883.316	43541.12
883.557	43282.12
883.797	42951.12
884.038	42872.12
884.279	42300.12
884.52	41877.12
884.761	41330.12
885.001	41151.12
885.242	40705.12
885.482	40463.12
885.723	40168.12
885.963	39963.12
886.204	39919.12
886.444	39792.12
886.685	39556.12
886.925	39265.12
887.165	39218.12
887.405	38940.12
887.646	38721.12
887.886	38598.12
888.126	38675.12
888.366	38626.12
888.606	38646.12
888.846	38739.12
889.086	38974.12
889.326	38904.12
889.565	38832.12
889.805	38776.12
890.045	38568.12
890.285	38279.12
890.524	38308.12
890.764	38183.12
891.003	37810.12
891.243	37486.12
891.482	37114.12
891.722	36739.12
891.961	36568.12
892.201	36392.12
892.44	36028.12
892.679	35885.12
892.918	35936.12
893.158	35687.12
893.397	35548.12
893.636	35325.12
893.875	35133.12
894.114	35111.12
894.353	34977.12
894.592	34728.12
894.831	34639.12
895.069	34414.12
895.308	34136.12
895.547	33887.12
895.786	33820.12
896.024	33716.12
896.263	33665.12
896.501	33580.12
896.74	33507.12
896.978	33536.12
897.217	33370.12
897.455	33201.12
897.694	33127.12
897.932	32975.12
898.17	32984.12
898.408	32735.12
898.646	32543.12
898.885	32459.12
899.123	32217.12
899.361	32036.12
899.599	31820.12
899.837	31705.12
900.075	31413.12
900.312	31173.12
900.55	30927.12
900.788	30555.12
901.026	30308.12
901.263	30045.12
901.501	29782.12
901.739	29685.12
901.976	29520.12
902.214	29485.12
902.451	29282.12
902.689	29149.12
902.926	29167.12
903.163	29055.12
903.401	29219.12
903.638	29015.12
903.875	29075.12
904.112	29053.12
904.349	28918.12
904.586	28792.12
904.823	28709.12
905.06	28386.12
905.297	28273.12
905.534	27952.12
905.771	27792.12
906.008	27608.12
906.245	27406.12
906.481	27279.12
906.718	27291.12
906.955	27052.12
907.191	26890.12
907.428	26737.12
907.664	26619.12
907.901	26531.12
908.137	26560.12
908.374	26293.12
908.61	26192.12
908.846	26145.12
909.083	25897.12
909.319	25775.12
909.555	25593.12
909.791	25462.12
910.027	25134.12
910.263	24984.12
910.499	24755.12
910.735	24526.12
910.971	24382.12
911.207	24298.12
911.443	24044.12
911.678	24006.12
911.914	23837.12
912.15	23887.12
912.385	23774.12
912.621	23635.12
912.857	23769.12
913.092	23760.12
913.328	23643.12
913.563	23461.12
913.798	23615.12
914.034	23511.12
914.269	23348.12
914.504	23297.12
914.739	23212.12
914.975	23077.12
915.21	22949.12
915.445	22711.12
915.68	22507.12
915.915	22281.12
916.15	22054.12
916.384	21830.12
916.619	21602.12
916.854	21327.12
917.089	21280.12
917.324	21077.12
917.558	21022.12
917.793	20781.12
918.028	20773.12
918.262	20693.12
918.497	20663.12
918.731	20553.12
918.965	20534.12
919.2	20523.12
919.434	20515.12
919.668	20430.12
919.903	20312.12
920.137	20307.12
920.371	20180.12
920.605	20077.12
920.839	19886.12
921.073	19685.12
921.307	19542.12
921.541	19396.12
921.775	19220.12
922.009	19113.12
922.243	19112.12
922.476	19132.12
922.71	19202.12
922.944	18984.12
923.177	19028.12
923.411	18960.12
923.644	18897.12
923.878	18749.12
924.111	18663.12
924.345	18613.12
924.578	18507.12
924.811	18484.12
925.045	18327.12
925.278	18184.12
925.511	18109.12
925.744	17904.12
925.977	17739.12
926.21	17745.12
926.443	17529.12
926.676	17354.12
926.909	17280.12
927.142	16998.12
927.375	16987.12
927.608	16848.12
927.841	16775.12
928.073	16744.12
928.306	16631.12
928.539	16510.12
928.771	16623.12
929.004	16563.12
929.236	16465.12
929.469	16520.12
929.701	16484.12
929.933	16495.12
930.166	16462.12
930.398	16467.12
930.63	16391.12
930.862	16357.12
931.094	16192.12
931.327	16028.12
931.559	16131.12
931.791	15917.12
932.023	15820.12
932.255	15681.12
932.486	15566.12
932.718	15510.12
932.95	15358.12
933.182	15284.12
933.413	15235.12
933.645	15089.12
933.877	14997.12
934.108	15067.12
934.34	14885.12
934.571	14937.12
934.803	14728.12
935.034	14709.12
935.265	14633.12
935.497	14618.12
935.728	14573.12
935.959	14576.12
936.19	14389.12
936.422	14316.12
936.653	14201.12
936.884	14204.12
937.115	14072.12
937.346	13965.12
937.577	13885.12
937.807	13749.12
938.038	13704.12
938.269	13732.12
938.5	13650.12
938.73	13598.12
938.961	13606.12
939.192	13559.12
939.422	13487.12
939.653	13465.12
939.883	13480.12
940.114	13410.12
940.344	13428.12
940.574	13340.12
940.805	13285.12
941.035	13220.12
941.265	13042.12
941.495	12970.12
941.726	12933.12
941.956	12833.12
942.186	12651.12
942.416	12504.12
942.646	12440.12
942.876	12379.12
943.105	12239.12
943.335	12145.12
943.565	12112.12
943.795	11998.12
944.024	11915.12
944.254	11796.12
944.484	11726.12
944.713	11667.12
944.943	11606.12
945.172	11565.12
945.402	11597.12
945.631	11521.12
945.86	11502.12
946.09	11504.12
946.319	11451.12
946.548	11359.12
946.777	11351.12
947.006	11345.12
947.235	11345.12
947.465	11307.12
947.694	11150.12
947.922	11069.12
948.151	11050.12
948.38	10872.12
948.609	10760.12
948.838	10751.12
949.067	10609.12
949.295	10617.12
949.524	10456.12
949.752	10480.12
949.981	10343.12
950.21	10267.12
950.438	10219.12
950.666	10069.12
950.895	10054.12
951.123	9989.12
951.351	10036.12
951.58	9913.12
951.808	9923.12
952.036	9764.12
952.264	9813.12
952.492	9715.12
952.72	9688.12
952.948	9583.12
953.176	9573.12
953.404	9476.12
953.632	9315.12
953.86	9363.12
954.088	9197.12
954.315	9186.12
954.543	9066.12
954.771	9087.12
954.998	9006.12
955.226	8971.12
955.453	8954.12
955.681	8918.12
955.908	8849.12
956.135	8853.12
956.363	8767.12
956.59	8769.12
956.817	8768.12
957.045	8759.12
957.272	8724.12
957.499	8689.12
957.726	8594.12
957.953	8559.12
958.18	8498.12
958.407	8479.12
958.634	8479.12
958.861	8414.12
959.087	8312.12
959.314	8305.12
959.541	8211.12
959.767	8139.12
959.994	8061.12
960.221	8057.12
960.447	7949.12
960.674	7925.12
960.9	7794.12
961.127	7768.12
961.353	7751.12
961.579	7637.12
961.806	7620.12
962.032	7563.12
962.258	7513.12
962.484	7505.12
962.71	7482.12
962.936	7443.12
963.162	7473.12
963.388	7407.12
963.614	7425.12
963.84	7400.12
964.066	7382.12
964.292	7298.12
964.518	7336.12
964.743	7268.12
964.969	7218.12
965.195	7158.12
965.42	7103.12
965.646	7114.12
965.871	7065.12
966.097	6990.12
966.322	7007.12
966.547	6964.12
966.773	6937.12
966.998	6904.12
967.223	6862.12
967.448	6824.12
967.674	6741.12
967.899	6741.12
968.124	6685.12
968.349	6606.12
968.574	6627.12
968.799	6605.12
969.024	6540.12
969.248	6580.12
969.473	6485.12
969.698	6431.12
969.923	6324.12
970.147	6386.12
970.372	6333.12
970.596	6236.12
970.821	6234.12
971.046	6188.12
971.27	6206.12
971.494	6168.12
971.719	6092.12
971.943	5993.12
972.167	5934.12
972.392	5984.12
972.616	5868.12
972.84	5877.12
973.064	5826.12
973.288	5797.12
973.512	5823.12
973.736	5811.12
973.96	5787.12
974.184	5739.12
974.408	5689.12
974.631	5649.12
974.855	5647.12
975.079	5621.12
975.303	5595.12
975.526	5623.12
975.75	5595.12
975.973	5581.12
976.197	5538.12
976.42	5491.12
976.644	5466.12
976.867	5422.12
977.09	5398.12
977.313	5332.12
977.537	5330.12
977.76	5252.12
977.983	5310.12
978.206	5211.12
978.429	5155.12
978.652	5139.12
978.875	5112.12
979.098	5060.12
979.321	5088.12
979.544	5000.12
979.767	4938.12
979.989	4893.12
980.212	4919.12
980.435	4944.12
980.657	4823.12
980.88	4837.12
981.102	4804.12
981.325	4748.12
981.547	4723.12
981.77	4710.12
981.992	4738.12
982.214	4676.12
982.437	4683.12
982.659	4622.12
982.881	4663.12
983.103	4642.12
983.325	4617.12
983.547	4581.12
983.769	4545.12
983.991	4494.12
984.213	4489.12
984.435	4471.12
984.657	4462.12
984.879	4405.12
985.1	4384.12
985.322	4407.12
985.544	4358.12
985.765	4363.12
985.987	4351.12
986.208	4286.12
986.43	4290.12
986.651	4250.12
986.873	4260.12
987.094	4201.12
987.315	4167.12
987.536	4139.12
987.758	4098.12
987.979	4096.12
988.2	4078.12
988.421	4082.12
988.642	3991.12
988.863	3936.12
989.084	3948.12
989.305	3934.12
989.526	3927.12
989.747	3890.12
989.967	3863.12
990.188	3845.12
990.409	3802.12
990.629	3801.12
990.85	3753.12
991.071	3749.12
991.291	3718.12
991.512	3705.12
991.732	3674.12
991.952	3664.12
992.173	3647.12
992.393	3648.12
992.613	3633.12
992.834	3635.12
993.054	3634.12
993.274	3596.12
993.494	3557.12
993.714	3557.12
993.934	3547.12
994.154	3520.12
994.374	3513.12
994.594	3505.12
994.813	3502.12
995.033	3417.12
995.253	3431.12
995.473	3461.12
995.692	3383.12
995.912	3430.12
996.131	3393.12
996.351	3324.12
996.57	3304.12
996.79	3256.12
997.009	3278.12
997.228	3250.12
997.448	3167.12
997.667	3171.12
997.886	3145.12
998.105	3132.12
998.325	3061.12
998.544	3122.12
998.763	3074.12
998.982	3054.12
999.201	3014.12
999.419	2954.12
999.638	2977.12
999.857	2937.12
1000.076	2932.12
1000.295	2986.12
1000.513	2970.12
1000.732	2920.12
1000.95	2878.12
1001.169	2932.12
1001.388	2835.12
1001.606	2875.12
1001.824	2878.12
1002.043	2822.12
1002.261	2803.12
1002.479	2844.12
1002.698	2802.12
1002.916	2765.12
1003.134	2788.12
1003.352	2779.12
1003.57	2743.12
1003.788	2769.12
1004.006	2720.12
1004.224	2748.12
1004.442	2711.12
1004.66	2689.12
1004.878	2705.12
1005.095	2669.12
1005.313	2690.12
1005.531	2646.12
1005.748	2626.12
1005.966	2675.12
1006.184	2595.12
1006.401	2597.12
1006.618	2568.12
1006.836	2582.12
1007.053	2608.12
1007.271	2580.12
1007.488	2527.12
1007.705	2555.12
1007.922	2538.12
1008.139	2532.12
1008.357	2547.12
1008.574	2535.12
1008.791	2567.12
1009.008	2592.12
1009.225	2531.12
1009.441	2547.12
1009.658	2557.12
1009.875	2586.12
1010.092	2548.12
1010.309	2555.12
1010.525	2493.12
1010.742	2492.12
1010.958	2422.12
1011.175	2461.12
1011.391	2408.12
1011.608	2375.12
1011.824	2370.12
1012.041	2380.12
1012.257	2355.12
1012.473	2330.12
1012.689	2284.12
1012.906	2305.12
1013.122	2277.12
1013.338	2246.12
1013.554	2266.12
1013.77	2246.12
1013.986	2239.12
1014.202	2263.12
1014.418	2310.12
1014.634	2343.12
1014.849	2326.12
1015.065	2380.12
1015.281	2372.12
1015.496	2379.12
1015.712	2370.12
1015.928	2291.12
1016.143	2253.12
1016.359	2253.12
1016.574	2169.12
1016.79	2182.12
1017.005	2128.12
1017.22	2095.12
1017.435	2039.12
1017.651	2044.12
1017.866	1986.12
1018.081	1929.12
1018.296	1937.12
1018.511	1891.12
1018.726	1890.12
1018.941	1873.12
1019.156	1814.12
1019.371	1796.12
1019.586	1841.12
1019.801	1834.12
1020.015	1812.12
1020.23	1800.12
1020.445	1766.12
1020.659	1725.12
1020.874	1747.12
1021.088	1704.12
1021.303	1713.12
1021.517	1651.12
1021.732	1645.12
1021.946	1621.12
1022.16	1645.12
1022.375	1623.12
1022.589	1596.12
1022.803	1542.12
1023.017	1522.12
1023.231	1477.12
1023.445	1479.12
1023.659	1431.12
1023.873	1424.12
1024.087	1376.12
1024.301	1372.12
1024.515	1362.12
1024.729	1356.12
1024.942	1305.12
1025.156	1295.12
1025.37	1262.12
1025.583	1253.12
1025.797	1212.12
1026.01	1207.12
1026.224	1167.12
1026.437	1146.12
1026.651	1113.12
1026.864	1088.12
1027.077	1077.12
1027.291	1032.12
1027.504	1029.12
1027.717	957.12
1027.93	945.12
1028.143	923.12
1028.356	911.12
1028.569	864.12
1028.782	818.12
1028.995	-2.88
1029.208	-0.88
1029.421	0.12
1029.634	0.12
