Data from QEP037381__387__15-48-29-069.txt Node

Date: Mon Mar 14 15:48:29 EDT 2022
User: dcclab
Spectrometer: QEP03738
Trigger mode: 4
Integration Time (sec): 2.500000E0
Scans to average: 1
Electric dark correction enabled: true
Nonlinearity correction enabled: false
Boxcar width: 0
XAxis mode: Wavelengths
Number of Pixels in Spectrum: 1044
>>>>>Begin Spectral Data<<<<<
783.959	12.88
784.218	0.88
784.476	-3.12
784.734	-4.12
784.992	262.88
785.251	260.88
785.509	249.88
785.767	234.88
786.025	245.88
786.283	254.88
786.541	245.88
786.798	239.88
787.056	238.88
787.314	230.88
787.572	236.88
787.83	245.88
788.087	239.88
788.345	240.88
788.602	237.88
788.86	242.88
789.117	242.88
789.375	228.88
789.632	245.88
789.89	237.88
790.147	252.88
790.404	256.88
790.661	246.88
790.919	285.88
791.176	262.88
791.433	274.88
791.69	283.88
791.947	276.88
792.204	271.88
792.461	282.88
792.718	297.88
792.974	301.88
793.231	300.88
793.488	340.88
793.745	313.88
794.001	360.88
794.258	388.88
794.514	374.88
794.771	398.88
795.027	417.88
795.284	434.88
795.54	455.88
795.797	479.88
796.053	541.88
796.309	593.88
796.565	634.88
796.822	699.88
797.078	800.88
797.334	948.88
797.59	1116.88
797.846	1420.88
798.102	1835.88
798.358	2498.88
798.614	3560.88
798.869	5254.88
799.125	7689.88
799.381	11227.88
799.637	16021.88
799.892	21647.88
800.148	27695.88
800.403	33480.88
800.659	38681.88
800.914	42572.88
801.17	44955.88
801.425	46814.88
801.68	47981.88
801.936	48738.88
802.191	49912.88
802.446	50804.88
802.701	51843.88
802.957	52851.88
803.212	53729.88
803.467	54609.88
803.722	55713.88
803.977	56684.88
804.232	57525.88
804.486	58634.88
804.741	59451.88
804.996	60603.88
805.251	61463.88
805.505	62465.88
805.76	63049.88
806.015	64113.88
806.269	64674.88
806.524	65348.88
806.778	65600.88
807.033	66079.88
807.287	66652.88
807.541	67514.88
807.796	68358.88
808.05	69103.88
808.304	69394.88
808.558	69697.88
808.812	70013.88
809.066	70473.88
809.32	70704.88
809.574	71305.88
809.828	71597.88
810.082	71773.88
810.336	72141.88
810.59	72975.88
810.844	73745.88
811.097	74342.88
811.351	75435.88
811.605	76247.88
811.858	77324.88
812.112	78359.88
812.365	79582.88
812.619	80666.88
812.872	81830.88
813.126	82683.88
813.379	83665.88
813.632	84568.88
813.885	85528.88
814.139	86441.88
814.392	87754.88
814.645	89143.88
814.898	90350.88
815.151	91822.88
815.404	93370.88
815.657	95003.88
815.91	96053.88
816.163	97276.88
816.416	98044.88
816.668	98588.88
816.921	99017.88
817.174	99176.88
817.426	99061.88
817.679	98658.88
817.931	98564.88
818.184	98393.88
818.436	98241.88
818.689	98227.88
818.941	98447.88
819.194	98368.88
819.446	98505.88
819.698	98974.88
819.95	99156.88
820.202	99650.88
820.455	99817.88
820.707	99915.88
820.959	99856.88
821.211	99610.88
821.462	98999.88
821.714	98941.88
821.966	98432.88
822.218	97725.88
822.47	97272.88
822.722	96783.88
822.973	96332.88
823.225	95916.88
823.476	95645.88
823.728	95626.88
823.979	95485.88
824.231	95412.88
824.482	95318.88
824.734	95372.88
824.985	95004.88
825.236	94636.88
825.487	94440.88
825.739	93982.88
825.99	93510.88
826.241	92993.88
826.492	92660.88
826.743	91931.88
826.994	91869.88
827.245	91174.88
827.496	90814.88
827.747	90468.88
827.997	90197.88
828.248	90375.88
828.499	90553.88
828.75	90442.88
829	90275.88
829.251	89982.88
829.501	89698.88
829.752	89154.88
830.002	88777.88
830.253	88237.88
830.503	87556.88
830.753	87114.88
831.004	86493.88
831.254	85771.88
831.504	85683.88
831.754	85486.88
832.004	85377.88
832.254	85151.88
832.504	85312.88
832.754	85320.88
833.004	84967.88
833.254	84603.88
833.504	84220.88
833.754	84119.88
834.003	83668.88
834.253	83315.88
834.503	82705.88
834.752	82070.88
835.002	81726.88
835.252	81372.88
835.501	80970.88
835.75	80834.88
836	80398.88
836.249	80373.88
836.499	80071.88
836.748	80100.88
836.997	80005.88
837.246	79821.88
837.495	79977.88
837.744	80240.88
837.993	80484.88
838.242	80483.88
838.491	80221.88
838.74	79347.88
838.989	78720.88
839.238	78013.88
839.487	77251.88
839.736	77003.88
839.984	76622.88
840.233	76225.88
840.482	75872.88
840.73	75469.88
840.979	75169.88
841.227	74695.88
841.476	74466.88
841.724	74220.88
841.972	73992.88
842.221	73689.88
842.469	73285.88
842.717	73378.88
842.965	72943.88
843.213	72748.88
843.461	72575.88
843.71	72161.88
843.958	71667.88
844.205	71647.88
844.453	71586.88
844.701	71234.88
844.949	71130.88
845.197	71099.88
845.445	70984.88
845.692	70967.88
845.94	71167.88
846.188	70925.88
846.435	71099.88
846.683	70691.88
846.93	70471.88
847.178	69879.88
847.425	69299.88
847.672	68773.88
847.92	68276.88
848.167	67713.88
848.414	67087.88
848.661	66453.88
848.908	66182.88
849.155	65869.88
849.402	65714.88
849.649	65646.88
849.896	66063.88
850.143	66173.88
850.39	66498.88
850.637	66496.88
850.884	66266.88
851.131	66317.88
851.377	65905.88
851.624	65772.88
851.87	65687.88
852.117	65121.88
852.364	64738.88
852.61	64625.88
852.856	64326.88
853.103	63998.88
853.349	63753.88
853.595	63422.88
853.842	63018.88
854.088	62964.88
854.334	63068.88
854.58	63024.88
854.826	62579.88
855.072	62100.88
855.318	61723.88
855.564	61009.88
855.81	60506.88
856.056	60064.88
856.302	59558.88
856.548	59314.88
856.793	58995.88
857.039	58676.88
857.285	58561.88
857.53	58390.88
857.776	58466.88
858.021	58735.88
858.267	58950.88
858.512	58765.88
858.758	58967.88
859.003	58993.88
859.248	58986.88
859.493	58809.88
859.739	58843.88
859.984	58552.88
860.229	58106.88
860.474	57652.88
860.719	57340.88
860.964	56893.88
861.209	56816.88
861.454	56396.88
861.699	56009.88
861.943	55776.88
862.188	55513.88
862.433	55250.88
862.678	54976.88
862.922	54854.88
863.167	54811.88
863.411	54582.88
863.656	54381.88
863.9	54273.88
864.145	54230.88
864.389	54017.88
864.634	53692.88
864.878	53452.88
865.122	53350.88
865.366	53162.88
865.61	53026.88
865.855	52705.88
866.099	52553.88
866.343	52404.88
866.587	52429.88
866.831	52283.88
867.074	52333.88
867.318	52199.88
867.562	52271.88
867.806	52175.88
868.05	51970.88
868.293	52006.88
868.537	51778.88
868.78	51513.88
869.024	51385.88
869.267	50918.88
869.511	50605.88
869.754	50309.88
869.998	49814.88
870.241	49301.88
870.484	48853.88
870.728	48504.88
870.971	48191.88
871.214	48187.88
871.457	47856.88
871.7	48078.88
871.943	47932.88
872.186	47930.88
872.429	47862.88
872.672	48037.88
872.915	47734.88
873.158	47631.88
873.4	47548.88
873.643	47684.88
873.886	47478.88
874.128	47146.88
874.371	47172.88
874.613	47010.88
874.856	46853.88
875.098	46632.88
875.341	46371.88
875.583	46326.88
875.825	46143.88
876.068	45944.88
876.31	45554.88
876.552	45180.88
876.794	44759.88
877.036	44514.88
877.278	44154.88
877.52	44014.88
877.762	43700.88
878.004	43530.88
878.246	43363.88
878.488	43327.88
878.73	43256.88
878.972	43437.88
879.213	43257.88
879.455	43032.88
879.697	43101.88
879.938	42868.88
880.18	42749.88
880.421	42666.88
880.663	42540.88
880.904	42415.88
881.145	42437.88
881.387	42478.88
881.628	42354.88
881.869	42148.88
882.11	41887.88
882.352	41922.88
882.593	41846.88
882.834	41799.88
883.075	41301.88
883.316	41412.88
883.557	41352.88
883.797	41136.88
884.038	40630.88
884.279	40305.88
884.52	39882.88
884.761	39360.88
885.001	39153.88
885.242	38785.88
885.482	38582.88
885.723	38332.88
885.963	38276.88
886.204	38059.88
886.444	37963.88
886.685	37808.88
886.925	37567.88
887.165	37395.88
887.405	37249.88
887.646	36916.88
887.886	36892.88
888.126	36850.88
888.366	36906.88
888.606	36939.88
888.846	36969.88
889.086	36966.88
889.326	37090.88
889.565	36960.88
889.805	36963.88
890.045	36752.88
890.285	36621.88
890.524	36440.88
890.764	36295.88
891.003	36163.88
891.243	35625.88
891.482	35438.88
891.722	35154.88
891.961	34860.88
892.201	34655.88
892.44	34422.88
892.679	34126.88
892.918	34105.88
893.158	33941.88
893.397	33858.88
893.636	33765.88
893.875	33724.88
894.114	33578.88
894.353	33454.88
894.592	33206.88
894.831	33046.88
895.069	32879.88
895.308	32664.88
895.547	32529.88
895.786	32320.88
896.024	32065.88
896.263	32077.88
896.501	32103.88
896.74	32065.88
896.978	31933.88
897.217	31933.88
897.455	31729.88
897.694	31701.88
897.932	31667.88
898.17	31435.88
898.408	31237.88
898.646	31079.88
898.885	30857.88
899.123	30789.88
899.361	30538.88
899.599	30366.88
899.837	30142.88
900.075	29982.88
900.312	29862.88
900.55	29557.88
900.788	29216.88
901.026	29030.88
901.263	28786.88
901.501	28428.88
901.739	28295.88
901.976	28113.88
902.214	27983.88
902.451	27959.88
902.689	27841.88
902.926	27721.88
903.163	27908.88
903.401	27810.88
903.638	27807.88
903.875	27729.88
904.112	27731.88
904.349	27588.88
904.586	27457.88
904.823	27335.88
905.06	27000.88
905.297	26886.88
905.534	26653.88
905.771	26607.88
906.008	26481.88
906.245	26334.88
906.481	26112.88
906.718	25852.88
906.955	25834.88
907.191	25669.88
907.428	25644.88
907.664	25566.88
907.901	25389.88
908.137	25218.88
908.374	25105.88
908.61	25074.88
908.846	24849.88
909.083	24722.88
909.319	24545.88
909.555	24360.88
909.791	24290.88
910.027	24048.88
910.263	23891.88
910.499	23769.88
910.735	23478.88
910.971	23237.88
911.207	23171.88
911.443	22977.88
911.678	22960.88
911.914	22746.88
912.15	22744.88
912.385	22717.88
912.621	22679.88
912.857	22677.88
913.092	22562.88
913.328	22613.88
913.563	22434.88
913.798	22409.88
914.034	22377.88
914.269	22289.88
914.504	22310.88
914.739	22123.88
914.975	21905.88
915.21	21806.88
915.445	21669.88
915.68	21425.88
915.915	21225.88
916.15	21156.88
916.384	20814.88
916.619	20600.88
916.854	20409.88
917.089	20245.88
917.324	20173.88
917.558	19957.88
917.793	19827.88
918.028	19840.88
918.262	19665.88
918.497	19647.88
918.731	19734.88
918.965	19576.88
919.2	19590.88
919.434	19668.88
919.668	19599.88
919.903	19428.88
920.137	19377.88
920.371	19245.88
920.605	19185.88
920.839	18951.88
921.073	18816.88
921.307	18669.88
921.541	18451.88
921.775	18405.88
922.009	18472.88
922.243	18325.88
922.476	18212.88
922.71	18299.88
922.944	18246.88
923.177	18103.88
923.411	18213.88
923.644	18021.88
923.878	18018.88
924.111	17887.88
924.345	17703.88
924.578	17793.88
924.811	17644.88
925.045	17407.88
925.278	17391.88
925.511	17383.88
925.744	17208.88
925.977	16929.88
926.21	16928.88
926.443	16759.88
926.676	16652.88
926.909	16419.88
927.142	16338.88
927.375	16178.88
927.608	16049.88
927.841	16064.88
928.073	16032.88
928.306	15889.88
928.539	15784.88
928.771	15899.88
929.004	15861.88
929.236	15823.88
929.469	15813.88
929.701	15860.88
929.933	15843.88
930.166	15864.88
930.398	15668.88
930.63	15790.88
930.862	15607.88
931.094	15524.88
931.327	15441.88
931.559	15257.88
931.791	15189.88
932.023	15159.88
932.255	15040.88
932.486	14866.88
932.718	14886.88
932.95	14676.88
933.182	14657.88
933.413	14512.88
933.645	14432.88
933.877	14377.88
934.108	14423.88
934.34	14305.88
934.571	14250.88
934.803	14097.88
935.034	14075.88
935.265	14003.88
935.497	13948.88
935.728	14035.88
935.959	13904.88
936.19	13848.88
936.422	13710.88
936.653	13623.88
936.884	13571.88
937.115	13414.88
937.346	13367.88
937.577	13238.88
937.807	13188.88
938.038	13091.88
938.269	13132.88
938.5	13028.88
938.73	13058.88
938.961	12982.88
939.192	13021.88
939.422	12967.88
939.653	12942.88
939.883	12907.88
940.114	12897.88
940.344	12828.88
940.574	12771.88
940.805	12682.88
941.035	12592.88
941.265	12603.88
941.495	12435.88
941.726	12347.88
941.956	12254.88
942.186	12181.88
942.416	11998.88
942.646	11939.88
942.876	11835.88
943.105	11776.88
943.335	11639.88
943.565	11538.88
943.795	11494.88
944.024	11402.88
944.254	11347.88
944.484	11224.88
944.713	11180.88
944.943	11101.88
945.172	11089.88
945.402	11108.88
945.631	11001.88
945.86	10977.88
946.09	11038.88
946.319	10913.88
946.548	10899.88
946.777	10876.88
947.006	10885.88
947.235	10843.88
947.465	10745.88
947.694	10679.88
947.922	10548.88
948.151	10512.88
948.38	10418.88
948.609	10337.88
948.838	10264.88
949.067	10147.88
949.295	10164.88
949.524	10086.88
949.752	9964.88
949.981	9900.88
950.21	9875.88
950.438	9799.88
950.666	9699.88
950.895	9608.88
951.123	9631.88
951.351	9541.88
951.58	9431.88
951.808	9472.88
952.036	9334.88
952.264	9350.88
952.492	9355.88
952.72	9239.88
952.948	9227.88
953.176	9100.88
953.404	9088.88
953.632	9034.88
953.86	8927.88
954.088	8836.88
954.315	8818.88
954.543	8746.88
954.771	8691.88
954.998	8642.88
955.226	8591.88
955.453	8625.88
955.681	8486.88
955.908	8514.88
956.135	8425.88
956.363	8454.88
956.59	8449.88
956.817	8418.88
957.045	8252.88
957.272	8341.88
957.499	8283.88
957.726	8284.88
957.953	8243.88
958.18	8171.88
958.407	8141.88
958.634	8054.88
958.861	8017.88
959.087	7977.88
959.314	7941.88
959.541	7883.88
959.767	7864.88
959.994	7763.88
960.221	7719.88
960.447	7614.88
960.674	7566.88
960.9	7529.88
961.127	7475.88
961.353	7401.88
961.579	7351.88
961.806	7325.88
962.032	7299.88
962.258	7211.88
962.484	7188.88
962.71	7153.88
962.936	7191.88
963.162	7143.88
963.388	7085.88
963.614	7091.88
963.84	7069.88
964.066	7055.88
964.292	7048.88
964.518	7019.88
964.743	6964.88
964.969	6967.88
965.195	6886.88
965.42	6876.88
965.646	6859.88
965.871	6820.88
966.097	6740.88
966.322	6804.88
966.547	6648.88
966.773	6645.88
966.998	6653.88
967.223	6564.88
967.448	6563.88
967.674	6532.88
967.899	6468.88
968.124	6384.88
968.349	6388.88
968.574	6342.88
968.799	6295.88
969.024	6256.88
969.248	6276.88
969.473	6211.88
969.698	6209.88
969.923	6159.88
970.147	6115.88
970.372	6062.88
970.596	5999.88
970.821	5951.88
971.046	5917.88
971.27	5913.88
971.494	5854.88
971.719	5844.88
971.943	5791.88
972.167	5759.88
972.392	5696.88
972.616	5656.88
972.84	5621.88
973.064	5623.88
973.288	5619.88
973.512	5560.88
973.736	5527.88
973.96	5543.88
974.184	5518.88
974.408	5528.88
974.631	5470.88
974.855	5535.88
975.079	5358.88
975.303	5393.88
975.526	5361.88
975.75	5338.88
975.973	5334.88
976.197	5295.88
976.42	5275.88
976.644	5295.88
976.867	5225.88
977.09	5185.88
977.313	5153.88
977.537	5104.88
977.76	5057.88
977.983	5033.88
978.206	5011.88
978.429	4935.88
978.652	4925.88
978.875	4901.88
979.098	4854.88
979.321	4889.88
979.544	4788.88
979.767	4774.88
979.989	4729.88
980.212	4732.88
980.435	4683.88
980.657	4682.88
980.88	4643.88
981.102	4609.88
981.325	4621.88
981.547	4595.88
981.77	4527.88
981.992	4528.88
982.214	4478.88
982.437	4455.88
982.659	4471.88
982.881	4455.88
983.103	4434.88
983.325	4429.88
983.547	4371.88
983.769	4359.88
983.991	4370.88
984.213	4317.88
984.435	4316.88
984.657	4363.88
984.879	4245.88
985.1	4229.88
985.322	4236.88
985.544	4177.88
985.765	4218.88
985.987	4101.88
986.208	4142.88
986.43	4126.88
986.651	4084.88
986.873	4076.88
987.094	4039.88
987.315	3993.88
987.536	3960.88
987.758	3961.88
987.979	3921.88
988.2	3959.88
988.421	3880.88
988.642	3860.88
988.863	3794.88
989.084	3776.88
989.305	3790.88
989.526	3763.88
989.747	3736.88
989.967	3699.88
990.188	3677.88
990.409	3662.88
990.629	3659.88
990.85	3643.88
991.071	3571.88
991.291	3584.88
991.512	3554.88
991.732	3474.88
991.952	3518.88
992.173	3506.88
992.393	3496.88
992.613	3450.88
992.834	3482.88
993.054	3468.88
993.274	3442.88
993.494	3384.88
993.714	3423.88
993.934	3426.88
994.154	3375.88
994.374	3381.88
994.594	3385.88
994.813	3340.88
995.033	3339.88
995.253	3373.88
995.473	3297.88
995.692	3257.88
995.912	3253.88
996.131	3249.88
996.351	3199.88
996.57	3196.88
996.79	3169.88
997.009	3124.88
997.228	3091.88
997.448	3077.88
997.667	3049.88
997.886	3007.88
998.105	3027.88
998.325	2967.88
998.544	2960.88
998.763	2954.88
998.982	2900.88
999.201	2887.88
999.419	2889.88
999.638	2865.88
999.857	2824.88
1000.076	2862.88
1000.295	2832.88
1000.513	2835.88
1000.732	2779.88
1000.95	2776.88
1001.169	2798.88
1001.388	2794.88
1001.606	2753.88
1001.824	2712.88
1002.043	2711.88
1002.261	2732.88
1002.479	2720.88
1002.698	2668.88
1002.916	2680.88
1003.134	2663.88
1003.352	2680.88
1003.57	2654.88
1003.788	2647.88
1004.006	2591.88
1004.224	2650.88
1004.442	2584.88
1004.66	2607.88
1004.878	2597.88
1005.095	2589.88
1005.313	2558.88
1005.531	2549.88
1005.748	2546.88
1005.966	2621.88
1006.184	2517.88
1006.401	2506.88
1006.618	2481.88
1006.836	2457.88
1007.053	2503.88
1007.271	2444.88
1007.488	2430.88
1007.705	2456.88
1007.922	2443.88
1008.139	2428.88
1008.357	2452.88
1008.574	2444.88
1008.791	2435.88
1009.008	2446.88
1009.225	2464.88
1009.441	2457.88
1009.658	2471.88
1009.875	2462.88
1010.092	2497.88
1010.309	2459.88
1010.525	2443.88
1010.742	2375.88
1010.958	2346.88
1011.175	2339.88
1011.391	2311.88
1011.608	2326.88
1011.824	2298.88
1012.041	2245.88
1012.257	2244.88
1012.473	2223.88
1012.689	2253.88
1012.906	2224.88
1013.122	2200.88
1013.338	2223.88
1013.554	2181.88
1013.77	2180.88
1013.986	2193.88
1014.202	2192.88
1014.418	2232.88
1014.634	2249.88
1014.849	2273.88
1015.065	2292.88
1015.281	2263.88
1015.496	2273.88
1015.712	2261.88
1015.928	2212.88
1016.143	2184.88
1016.359	2136.88
1016.574	2143.88
1016.79	2071.88
1017.005	2040.88
1017.22	1975.88
1017.435	1965.88
1017.651	1967.88
1017.866	1914.88
1018.081	1919.88
1018.296	1850.88
1018.511	1828.88
1018.726	1816.88
1018.941	1777.88
1019.156	1752.88
1019.371	1762.88
1019.586	1766.88
1019.801	1727.88
1020.015	1749.88
1020.23	1729.88
1020.445	1699.88
1020.659	1683.88
1020.874	1687.88
1021.088	1647.88
1021.303	1622.88
1021.517	1594.88
1021.732	1589.88
1021.946	1556.88
1022.16	1595.88
1022.375	1555.88
1022.589	1539.88
1022.803	1489.88
1023.017	1492.88
1023.231	1480.88
1023.445	1431.88
1023.659	1387.88
1023.873	1369.88
1024.087	1336.88
1024.301	1333.88
1024.515	1306.88
1024.729	1297.88
1024.942	1248.88
1025.156	1275.88
1025.37	1241.88
1025.583	1206.88
1025.797	1178.88
1026.01	1176.88
1026.224	1133.88
1026.437	1073.88
1026.651	1064.88
1026.864	1038.88
1027.077	1034.88
1027.291	982.88
1027.504	976.88
1027.717	937.88
1027.93	932.88
1028.143	895.88
1028.356	879.88
1028.569	831.88
1028.782	757.88
1028.995	-2.12
1029.208	-0.12
1029.421	-4.12
1029.634	-0.12
