Data from QEP037381__435__15-52-54-072.txt Node

Date: Mon Mar 14 15:52:54 EDT 2022
User: dcclab
Spectrometer: QEP03738
Trigger mode: 4
Integration Time (sec): 2.500000E0
Scans to average: 1
Electric dark correction enabled: true
Nonlinearity correction enabled: false
Boxcar width: 0
XAxis mode: Wavelengths
Number of Pixels in Spectrum: 1044
>>>>>Begin Spectral Data<<<<<
783.959	12.88
784.218	0.88
784.476	-0.12
784.734	-8.12
784.992	241.88
785.251	232.88
785.509	229.88
785.767	217.88
786.025	234.88
786.283	224.88
786.541	233.88
786.798	226.88
787.056	224.88
787.314	212.88
787.572	216.88
787.83	227.88
788.087	228.88
788.345	223.88
788.602	223.88
788.86	223.88
789.117	228.88
789.375	215.88
789.632	225.88
789.89	217.88
790.147	237.88
790.404	243.88
790.661	238.88
790.919	257.88
791.176	241.88
791.433	244.88
791.69	246.88
791.947	250.88
792.204	238.88
792.461	260.88
792.718	280.88
792.974	277.88
793.231	275.88
793.488	309.88
793.745	310.88
794.001	312.88
794.258	339.88
794.514	336.88
794.771	348.88
795.027	357.88
795.284	386.88
795.54	401.88
795.797	424.88
796.053	471.88
796.309	510.88
796.565	546.88
796.822	599.88
797.078	687.88
797.334	809.88
797.59	944.88
797.846	1183.88
798.102	1498.88
798.358	2043.88
798.614	2918.88
798.869	4231.88
799.125	6226.88
799.381	9218.88
799.637	12987.88
799.892	17707.88
800.148	22844.88
800.403	27901.88
800.659	32234.88
800.914	35492.88
801.17	37604.88
801.425	39098.88
801.68	40047.88
801.936	40968.88
802.191	41619.88
802.446	42703.88
802.701	43537.88
802.957	44487.88
803.212	45289.88
803.467	46204.88
803.722	47015.88
803.977	47989.88
804.232	48805.88
804.486	49593.88
804.741	50610.88
804.996	51559.88
805.251	52510.88
805.505	53364.88
805.76	54234.88
806.015	54898.88
806.269	55369.88
806.524	56182.88
806.778	56635.88
807.033	57077.88
807.287	57603.88
807.541	58311.88
807.796	59213.88
808.05	59743.88
808.304	60119.88
808.558	60629.88
808.812	60902.88
809.066	61368.88
809.32	61781.88
809.574	62049.88
809.828	62405.88
810.082	62581.88
810.336	63274.88
810.59	63813.88
810.844	64440.88
811.097	65330.88
811.351	66267.88
811.605	67290.88
811.858	67958.88
812.112	69322.88
812.365	70207.88
812.619	71374.88
812.872	72363.88
813.126	73127.88
813.379	74362.88
813.632	75188.88
813.885	76212.88
814.139	77108.88
814.392	78338.88
814.645	79492.88
814.898	80953.88
815.151	82197.88
815.404	83586.88
815.657	85155.88
815.91	86284.88
816.163	87196.88
816.416	88059.88
816.668	88689.88
816.921	89139.88
817.174	89129.88
817.426	89352.88
817.679	89230.88
817.931	89207.88
818.184	89112.88
818.436	89030.88
818.689	89139.88
818.941	89129.88
819.194	89371.88
819.446	89516.88
819.698	90151.88
819.95	90393.88
820.202	90594.88
820.455	90933.88
820.707	91076.88
820.959	91207.88
821.211	91057.88
821.462	90915.88
821.714	90177.88
821.966	90025.88
822.218	89605.88
822.47	89046.88
822.722	88847.88
822.973	88527.88
823.225	88120.88
823.476	87766.88
823.728	88114.88
823.979	88021.88
824.231	87869.88
824.482	87850.88
824.734	87984.88
824.985	87662.88
825.236	87566.88
825.487	87378.88
825.739	86956.88
825.99	86722.88
826.241	86128.88
826.492	85810.88
826.743	85169.88
826.994	84735.88
827.245	84343.88
827.496	84080.88
827.747	83584.88
827.997	83942.88
828.248	83871.88
828.499	84021.88
828.75	83926.88
829	83925.88
829.251	83854.88
829.501	83411.88
829.752	83136.88
830.002	82943.88
830.253	82150.88
830.503	81712.88
830.753	81127.88
831.004	80462.88
831.254	80175.88
831.504	80098.88
831.754	79888.88
832.004	79756.88
832.254	79626.88
832.504	79515.88
832.754	79656.88
833.004	79497.88
833.254	79258.88
833.504	79275.88
833.754	78782.88
834.003	78434.88
834.253	78158.88
834.503	77932.88
834.752	77136.88
835.002	76690.88
835.252	76441.88
835.501	76158.88
835.75	75705.88
836	75558.88
836.249	75566.88
836.499	75500.88
836.748	75461.88
836.997	75200.88
837.246	75342.88
837.495	75592.88
837.744	75654.88
837.993	76524.88
838.242	76577.88
838.491	76304.88
838.74	75580.88
838.989	74436.88
839.238	73938.88
839.487	72997.88
839.736	72716.88
839.984	72222.88
840.233	71945.88
840.482	71597.88
840.73	71428.88
840.979	70925.88
841.227	70754.88
841.476	70421.88
841.724	70135.88
841.972	69967.88
842.221	69612.88
842.469	69376.88
842.717	69079.88
842.965	68977.88
843.213	68568.88
843.461	68265.88
843.71	67888.88
843.958	67729.88
844.205	67817.88
844.453	67572.88
844.701	67460.88
844.949	67446.88
845.197	67120.88
845.445	67001.88
845.692	67199.88
845.94	67173.88
846.188	67190.88
846.435	66828.88
846.683	66765.88
846.93	66533.88
847.178	65893.88
847.425	65506.88
847.672	65088.88
847.92	64522.88
848.167	63941.88
848.414	63349.88
848.661	62754.88
848.908	62673.88
849.155	62403.88
849.402	62401.88
849.649	62282.88
849.896	62574.88
850.143	62986.88
850.39	63272.88
850.637	63148.88
850.884	63200.88
851.131	62767.88
851.377	62411.88
851.624	62430.88
851.87	62002.88
852.117	61658.88
852.364	61389.88
852.61	61378.88
852.856	60956.88
853.103	60779.88
853.349	60451.88
853.595	60220.88
853.842	59690.88
854.088	59625.88
854.334	59482.88
854.58	59468.88
854.826	59223.88
855.072	58804.88
855.318	58309.88
855.564	57828.88
855.81	57227.88
856.056	56840.88
856.302	56201.88
856.548	55797.88
856.793	55729.88
857.039	55351.88
857.285	55041.88
857.53	55087.88
857.776	55054.88
858.021	55179.88
858.267	55383.88
858.512	55400.88
858.758	55341.88
859.003	55627.88
859.248	55620.88
859.493	55529.88
859.739	55099.88
859.984	55042.88
860.229	54795.88
860.474	54402.88
860.719	54200.88
860.964	53716.88
861.209	53390.88
861.454	53088.88
861.699	52768.88
861.943	52479.88
862.188	52378.88
862.433	52027.88
862.678	51611.88
862.922	51667.88
863.167	51445.88
863.411	51206.88
863.656	51187.88
863.9	50953.88
864.145	50724.88
864.389	50491.88
864.634	50466.88
864.878	50219.88
865.122	49898.88
865.366	49819.88
865.61	49666.88
865.855	49257.88
866.099	49650.88
866.343	49336.88
866.587	49168.88
866.831	49300.88
867.074	49054.88
867.318	49006.88
867.562	49165.88
867.806	48980.88
868.05	48848.88
868.293	48673.88
868.537	48547.88
868.78	48345.88
869.024	48304.88
869.267	47684.88
869.511	47331.88
869.754	47018.88
869.998	46376.88
870.241	45978.88
870.484	45819.88
870.728	45433.88
870.971	45109.88
871.214	45017.88
871.457	44878.88
871.7	44775.88
871.943	44820.88
872.186	44825.88
872.429	44859.88
872.672	44857.88
872.915	44629.88
873.158	44657.88
873.4	44615.88
873.643	44288.88
873.886	44240.88
874.128	44291.88
874.371	43824.88
874.613	43733.88
874.856	43649.88
875.098	43492.88
875.341	43361.88
875.583	43294.88
875.825	43327.88
876.068	42987.88
876.31	42612.88
876.552	42164.88
876.794	41912.88
877.036	41454.88
877.278	41112.88
877.52	41069.88
877.762	40764.88
878.004	40660.88
878.246	40502.88
878.488	40576.88
878.73	40441.88
878.972	40349.88
879.213	40344.88
879.455	40327.88
879.697	40104.88
879.938	40051.88
880.18	40030.88
880.421	39774.88
880.663	39861.88
880.904	39666.88
881.145	39899.88
881.387	39832.88
881.628	39688.88
881.869	39462.88
882.11	39319.88
882.352	39064.88
882.593	38968.88
882.834	38927.88
883.075	38672.88
883.316	38634.88
883.557	38564.88
883.797	38393.88
884.038	37882.88
884.279	37325.88
884.52	37048.88
884.761	36676.88
885.001	36450.88
885.242	36110.88
885.482	35973.88
885.723	35698.88
885.963	35429.88
886.204	35336.88
886.444	35200.88
886.685	35061.88
886.925	34711.88
887.165	34757.88
887.405	34484.88
887.646	34434.88
887.886	34313.88
888.126	34325.88
888.366	34346.88
888.606	34319.88
888.846	34378.88
889.086	34567.88
889.326	34251.88
889.565	34305.88
889.805	34163.88
890.045	34081.88
890.285	33998.88
890.524	33905.88
890.764	33787.88
891.003	33610.88
891.243	33155.88
891.482	32955.88
891.722	32667.88
891.961	32485.88
892.201	32241.88
892.44	32022.88
892.679	31905.88
892.918	31771.88
893.158	31631.88
893.397	31586.88
893.636	31461.88
893.875	31301.88
894.114	31160.88
894.353	31027.88
894.592	30861.88
894.831	30769.88
895.069	30487.88
895.308	30404.88
895.547	30156.88
895.786	30038.88
896.024	30049.88
896.263	29946.88
896.501	29797.88
896.74	29718.88
896.978	29816.88
897.217	29668.88
897.455	29415.88
897.694	29376.88
897.932	29273.88
898.17	29094.88
898.408	28987.88
898.646	29009.88
898.885	28929.88
899.123	28634.88
899.361	28465.88
899.599	28123.88
899.837	28046.88
900.075	28002.88
900.312	27678.88
900.55	27412.88
900.788	27101.88
901.026	26906.88
901.263	26782.88
901.501	26471.88
901.739	26351.88
901.976	26129.88
902.214	26060.88
902.451	25918.88
902.689	25847.88
902.926	25781.88
903.163	25867.88
903.401	25824.88
903.638	25859.88
903.875	25705.88
904.112	25694.88
904.349	25620.88
904.586	25502.88
904.823	25498.88
905.06	25233.88
905.297	25102.88
905.534	24911.88
905.771	24705.88
906.008	24534.88
906.245	24450.88
906.481	24289.88
906.718	24113.88
906.955	24038.88
907.191	23848.88
907.428	23735.88
907.664	23712.88
907.901	23594.88
908.137	23580.88
908.374	23449.88
908.61	23410.88
908.846	23219.88
909.083	23062.88
909.319	23087.88
909.555	22735.88
909.791	22620.88
910.027	22368.88
910.263	22232.88
910.499	22051.88
910.735	21860.88
910.971	21692.88
911.207	21625.88
911.443	21298.88
911.678	21378.88
911.914	21201.88
912.15	21237.88
912.385	21171.88
912.621	21085.88
912.857	21138.88
913.092	20990.88
913.328	20884.88
913.563	21089.88
913.798	20987.88
914.034	20961.88
914.269	20839.88
914.504	20810.88
914.739	20643.88
914.975	20502.88
915.21	20330.88
915.445	20122.88
915.68	20013.88
915.915	19876.88
916.15	19694.88
916.384	19293.88
916.619	19144.88
916.854	19039.88
917.089	18949.88
917.324	18741.88
917.558	18556.88
917.793	18530.88
918.028	18421.88
918.262	18363.88
918.497	18335.88
918.731	18300.88
918.965	18285.88
919.2	18274.88
919.434	18240.88
919.668	18195.88
919.903	18038.88
920.137	17938.88
920.371	17899.88
920.605	17803.88
920.839	17613.88
921.073	17474.88
921.307	17400.88
921.541	17246.88
921.775	17110.88
922.009	17095.88
922.243	17021.88
922.476	17008.88
922.71	16918.88
922.944	16932.88
923.177	16790.88
923.411	16852.88
923.644	16790.88
923.878	16691.88
924.111	16565.88
924.345	16476.88
924.578	16404.88
924.811	16321.88
925.045	16349.88
925.278	16119.88
925.511	15966.88
925.744	15880.88
925.977	15760.88
926.21	15656.88
926.443	15466.88
926.676	15324.88
926.909	15246.88
927.142	15046.88
927.375	14913.88
927.608	14912.88
927.841	14770.88
928.073	14748.88
928.306	14723.88
928.539	14672.88
928.771	14698.88
929.004	14604.88
929.236	14583.88
929.469	14643.88
929.701	14626.88
929.933	14597.88
930.166	14518.88
930.398	14471.88
930.63	14502.88
930.862	14404.88
931.094	14346.88
931.327	14226.88
931.559	14039.88
931.791	13965.88
932.023	13923.88
932.255	13791.88
932.486	13728.88
932.718	13520.88
932.95	13409.88
933.182	13370.88
933.413	13390.88
933.645	13249.88
933.877	13155.88
934.108	13137.88
934.34	13007.88
934.571	12959.88
934.803	12870.88
935.034	12845.88
935.265	12755.88
935.497	12703.88
935.728	12765.88
935.959	12735.88
936.19	12556.88
936.422	12522.88
936.653	12509.88
936.884	12323.88
937.115	12273.88
937.346	12197.88
937.577	12057.88
937.807	11991.88
938.038	11952.88
938.269	11967.88
938.5	11832.88
938.73	11843.88
938.961	11788.88
939.192	11751.88
939.422	11738.88
939.653	11702.88
939.883	11703.88
940.114	11630.88
940.344	11515.88
940.574	11559.88
940.805	11401.88
941.035	11321.88
941.265	11165.88
941.495	11122.88
941.726	11051.88
941.956	10987.88
942.186	10913.88
942.416	10747.88
942.646	10699.88
942.876	10551.88
943.105	10513.88
943.335	10388.88
943.565	10320.88
943.795	10150.88
944.024	10090.88
944.254	10074.88
944.484	9978.88
944.713	9884.88
944.943	9835.88
945.172	9725.88
945.402	9732.88
945.631	9732.88
945.86	9617.88
946.09	9625.88
946.319	9569.88
946.548	9550.88
946.777	9586.88
947.006	9481.88
947.235	9432.88
947.465	9436.88
947.694	9297.88
947.922	9230.88
948.151	9099.88
948.38	9005.88
948.609	8946.88
948.838	8904.88
949.067	8744.88
949.295	8732.88
949.524	8700.88
949.752	8583.88
949.981	8523.88
950.21	8420.88
950.438	8437.88
950.666	8350.88
950.895	8294.88
951.123	8296.88
951.351	8173.88
951.58	8113.88
951.808	8069.88
952.036	7986.88
952.264	7989.88
952.492	7940.88
952.72	7837.88
952.948	7775.88
953.176	7766.88
953.404	7690.88
953.632	7585.88
953.86	7599.88
954.088	7497.88
954.315	7419.88
954.543	7369.88
954.771	7326.88
954.998	7295.88
955.226	7233.88
955.453	7200.88
955.681	7129.88
955.908	7116.88
956.135	7148.88
956.363	7153.88
956.59	7109.88
956.817	7014.88
957.045	7021.88
957.272	6988.88
957.499	6994.88
957.726	6905.88
957.953	6945.88
958.18	6802.88
958.407	6815.88
958.634	6791.88
958.861	6660.88
959.087	6716.88
959.314	6618.88
959.541	6545.88
959.767	6503.88
959.994	6446.88
960.221	6402.88
960.447	6340.88
960.674	6303.88
960.9	6236.88
961.127	6237.88
961.353	6177.88
961.579	6117.88
961.806	6114.88
962.032	5973.88
962.258	6012.88
962.484	5972.88
962.71	5991.88
962.936	5956.88
963.162	5928.88
963.388	5936.88
963.614	5891.88
963.84	5842.88
964.066	5864.88
964.292	5763.88
964.518	5790.88
964.743	5728.88
964.969	5738.88
965.195	5688.88
965.42	5640.88
965.646	5633.88
965.871	5571.88
966.097	5527.88
966.322	5580.88
966.547	5511.88
966.773	5421.88
966.998	5455.88
967.223	5401.88
967.448	5379.88
967.674	5365.88
967.899	5335.88
968.124	5282.88
968.349	5304.88
968.574	5212.88
968.799	5181.88
969.024	5185.88
969.248	5188.88
969.473	5133.88
969.698	5067.88
969.923	5063.88
970.147	5045.88
970.372	5002.88
970.596	4936.88
970.821	4870.88
971.046	4922.88
971.27	4898.88
971.494	4817.88
971.719	4763.88
971.943	4764.88
972.167	4715.88
972.392	4711.88
972.616	4629.88
972.84	4610.88
973.064	4590.88
973.288	4601.88
973.512	4586.88
973.736	4546.88
973.96	4542.88
974.184	4492.88
974.408	4502.88
974.631	4504.88
974.855	4494.88
975.079	4440.88
975.303	4451.88
975.526	4398.88
975.75	4374.88
975.973	4377.88
976.197	4314.88
976.42	4356.88
976.644	4287.88
976.867	4238.88
977.09	4223.88
977.313	4265.88
977.537	4206.88
977.76	4130.88
977.983	4188.88
978.206	4108.88
978.429	4030.88
978.652	4045.88
978.875	3989.88
979.098	3989.88
979.321	3996.88
979.544	3934.88
979.767	3913.88
979.989	3897.88
980.212	3895.88
980.435	3831.88
980.657	3780.88
980.88	3848.88
981.102	3794.88
981.325	3760.88
981.547	3773.88
981.77	3731.88
981.992	3745.88
982.214	3697.88
982.437	3654.88
982.659	3663.88
982.881	3678.88
983.103	3629.88
983.325	3647.88
983.547	3595.88
983.769	3562.88
983.991	3573.88
984.213	3556.88
984.435	3496.88
984.657	3521.88
984.879	3499.88
985.1	3471.88
985.322	3448.88
985.544	3443.88
985.765	3427.88
985.987	3401.88
986.208	3428.88
986.43	3394.88
986.651	3334.88
986.873	3321.88
987.094	3341.88
987.315	3269.88
987.536	3290.88
987.758	3279.88
987.979	3196.88
988.2	3202.88
988.421	3170.88
988.642	3189.88
988.863	3168.88
989.084	3142.88
989.305	3101.88
989.526	3120.88
989.747	3110.88
989.967	3061.88
990.188	3009.88
990.409	3006.88
990.629	3016.88
990.85	2994.88
991.071	2957.88
991.291	2975.88
991.512	2915.88
991.732	2925.88
991.952	2935.88
992.173	2864.88
992.393	2913.88
992.613	2827.88
992.834	2859.88
993.054	2882.88
993.274	2825.88
993.494	2844.88
993.714	2881.88
993.934	2856.88
994.154	2827.88
994.374	2831.88
994.594	2783.88
994.813	2799.88
995.033	2817.88
995.253	2788.88
995.473	2775.88
995.692	2730.88
995.912	2721.88
996.131	2674.88
996.351	2690.88
996.57	2691.88
996.79	2659.88
997.009	2616.88
997.228	2608.88
997.448	2572.88
997.667	2521.88
997.886	2536.88
998.105	2519.88
998.325	2497.88
998.544	2472.88
998.763	2492.88
998.982	2491.88
999.201	2457.88
999.419	2407.88
999.638	2428.88
999.857	2400.88
1000.076	2388.88
1000.295	2368.88
1000.513	2385.88
1000.732	2369.88
1000.95	2343.88
1001.169	2372.88
1001.388	2341.88
1001.606	2346.88
1001.824	2306.88
1002.043	2322.88
1002.261	2306.88
1002.479	2347.88
1002.698	2291.88
1002.916	2304.88
1003.134	2323.88
1003.352	2287.88
1003.57	2257.88
1003.788	2271.88
1004.006	2260.88
1004.224	2245.88
1004.442	2211.88
1004.66	2206.88
1004.878	2238.88
1005.095	2212.88
1005.313	2237.88
1005.531	2191.88
1005.748	2196.88
1005.966	2244.88
1006.184	2184.88
1006.401	2182.88
1006.618	2150.88
1006.836	2166.88
1007.053	2187.88
1007.271	2145.88
1007.488	2121.88
1007.705	2184.88
1007.922	2162.88
1008.139	2121.88
1008.357	2178.88
1008.574	2126.88
1008.791	2189.88
1009.008	2211.88
1009.225	2232.88
1009.441	2233.88
1009.658	2226.88
1009.875	2251.88
1010.092	2247.88
1010.309	2225.88
1010.525	2204.88
1010.742	2185.88
1010.958	2127.88
1011.175	2143.88
1011.391	2124.88
1011.608	2118.88
1011.824	2078.88
1012.041	2080.88
1012.257	2088.88
1012.473	2070.88
1012.689	2043.88
1012.906	2030.88
1013.122	2011.88
1013.338	2023.88
1013.554	2005.88
1013.77	2020.88
1013.986	2036.88
1014.202	2044.88
1014.418	2102.88
1014.634	2130.88
1014.849	2149.88
1015.065	2189.88
1015.281	2201.88
1015.496	2196.88
1015.712	2122.88
1015.928	2142.88
1016.143	2081.88
1016.359	2065.88
1016.574	1984.88
1016.79	1950.88
1017.005	1922.88
1017.22	1866.88
1017.435	1840.88
1017.651	1823.88
1017.866	1767.88
1018.081	1704.88
1018.296	1737.88
1018.511	1733.88
1018.726	1682.88
1018.941	1665.88
1019.156	1635.88
1019.371	1656.88
1019.586	1659.88
1019.801	1646.88
1020.015	1629.88
1020.23	1613.88
1020.445	1617.88
1020.659	1612.88
1020.874	1600.88
1021.088	1523.88
1021.303	1496.88
1021.517	1501.88
1021.732	1472.88
1021.946	1461.88
1022.16	1438.88
1022.375	1416.88
1022.589	1400.88
1022.803	1384.88
1023.017	1375.88
1023.231	1328.88
1023.445	1327.88
1023.659	1274.88
1023.873	1273.88
1024.087	1242.88
1024.301	1216.88
1024.515	1207.88
1024.729	1183.88
1024.942	1143.88
1025.156	1168.88
1025.37	1136.88
1025.583	1097.88
1025.797	1072.88
1026.01	1078.88
1026.224	1069.88
1026.437	1040.88
1026.651	975.88
1026.864	947.88
1027.077	948.88
1027.291	926.88
1027.504	914.88
1027.717	874.88
1027.93	851.88
1028.143	825.88
1028.356	822.88
1028.569	774.88
1028.782	704.88
1028.995	-4.12
1029.208	-0.12
1029.421	0.88
1029.634	-2.12
