Data from QEP037381__422__15-52-21-573.txt Node

Date: Mon Mar 14 15:52:21 EDT 2022
User: dcclab
Spectrometer: QEP03738
Trigger mode: 4
Integration Time (sec): 2.500000E0
Scans to average: 1
Electric dark correction enabled: true
Nonlinearity correction enabled: false
Boxcar width: 0
XAxis mode: Wavelengths
Number of Pixels in Spectrum: 1044
>>>>>Begin Spectral Data<<<<<
783.959	14.25
784.218	1.25
784.476	-1.75
784.734	-3.75
784.992	242.25
785.251	246.25
785.509	232.25
785.767	229.25
786.025	251.25
786.283	233.25
786.541	229.25
786.798	230.25
787.056	223.25
787.314	208.25
787.572	234.25
787.83	224.25
788.087	222.25
788.345	220.25
788.602	233.25
788.86	234.25
789.117	227.25
789.375	225.25
789.632	225.25
789.89	236.25
790.147	245.25
790.404	238.25
790.661	231.25
790.919	257.25
791.176	247.25
791.433	244.25
791.69	270.25
791.947	265.25
792.204	260.25
792.461	272.25
792.718	281.25
792.974	283.25
793.231	274.25
793.488	322.25
793.745	306.25
794.001	332.25
794.258	353.25
794.514	354.25
794.771	373.25
795.027	371.25
795.284	385.25
795.54	430.25
795.797	436.25
796.053	487.25
796.309	508.25
796.565	560.25
796.822	625.25
797.078	715.25
797.334	836.25
797.59	950.25
797.846	1231.25
798.102	1593.25
798.358	2115.25
798.614	3025.25
798.869	4362.25
799.125	6458.25
799.381	9461.25
799.637	13418.25
799.892	18269.25
800.148	23554.25
800.403	28730.25
800.659	33167.25
800.914	36492.25
801.17	38745.25
801.425	40377.25
801.68	41256.25
801.936	42084.25
802.191	42878.25
802.446	43811.25
802.701	44788.25
802.957	45874.25
803.212	46642.25
803.467	47299.25
803.722	48371.25
803.977	49185.25
804.232	50191.25
804.486	51170.25
804.741	52176.25
804.996	53104.25
805.251	53977.25
805.505	54807.25
805.76	55743.25
806.015	56425.25
806.269	57238.25
806.524	57786.25
806.778	58267.25
807.033	58764.25
807.287	59385.25
807.541	60084.25
807.796	60928.25
808.05	61539.25
808.304	62044.25
808.558	62374.25
808.812	62711.25
809.066	63251.25
809.32	63406.25
809.574	63895.25
809.828	64112.25
810.082	64560.25
810.336	65129.25
810.59	65652.25
810.844	66424.25
811.097	67319.25
811.351	68199.25
811.605	69241.25
811.858	70007.25
812.112	71270.25
812.365	72450.25
812.619	73485.25
812.872	74432.25
813.126	75154.25
813.379	76505.25
813.632	77408.25
813.885	78135.25
814.139	79432.25
814.392	80572.25
814.645	81575.25
814.898	83262.25
815.151	84634.25
815.404	86148.25
815.657	87723.25
815.91	88692.25
816.163	89792.25
816.416	90658.25
816.668	91222.25
816.921	91672.25
817.174	91694.25
817.426	91647.25
817.679	91775.25
817.931	91682.25
818.184	91629.25
818.436	91716.25
818.689	91646.25
818.941	91886.25
819.194	91967.25
819.446	92041.25
819.698	92605.25
819.95	92666.25
820.202	93511.25
820.455	93533.25
820.707	93858.25
820.959	93699.25
821.211	93492.25
821.462	93254.25
821.714	92958.25
821.966	92511.25
822.218	92001.25
822.47	91611.25
822.722	91247.25
822.973	90745.25
823.225	90473.25
823.476	90483.25
823.728	90268.25
823.979	90358.25
824.231	90242.25
824.482	90076.25
824.734	90404.25
824.985	90208.25
825.236	89850.25
825.487	89694.25
825.739	89390.25
825.99	88973.25
826.241	88645.25
826.492	88174.25
826.743	87477.25
826.994	86970.25
827.245	86551.25
827.496	86400.25
827.747	86057.25
827.997	86161.25
828.248	86148.25
828.499	85980.25
828.75	86129.25
829	86034.25
829.251	86024.25
829.501	85731.25
829.752	85439.25
830.002	84930.25
830.253	84392.25
830.503	84091.25
830.753	83263.25
831.004	82940.25
831.254	82265.25
831.504	82135.25
831.754	82021.25
832.004	81805.25
832.254	81758.25
832.504	81943.25
832.754	81896.25
833.004	81437.25
833.254	81377.25
833.504	81136.25
833.754	80896.25
834.003	80707.25
834.253	80500.25
834.503	79794.25
834.752	79182.25
835.002	78859.25
835.252	78400.25
835.501	78201.25
835.75	77594.25
836	77591.25
836.249	77438.25
836.499	77442.25
836.748	77302.25
836.997	77213.25
837.246	77341.25
837.495	77528.25
837.744	78027.25
837.993	78175.25
838.242	78475.25
838.491	78202.25
838.74	77289.25
838.989	76385.25
839.238	75734.25
839.487	75153.25
839.736	74457.25
839.984	74171.25
840.233	73740.25
840.482	73503.25
840.73	73018.25
840.979	72754.25
841.227	72467.25
841.476	72312.25
841.724	72083.25
841.972	71769.25
842.221	71571.25
842.469	71164.25
842.717	70881.25
842.965	70499.25
843.213	70269.25
843.461	70172.25
843.71	69690.25
843.958	69429.25
844.205	69315.25
844.453	69353.25
844.701	68947.25
844.949	69146.25
845.197	68991.25
845.445	68895.25
845.692	68742.25
845.94	68899.25
846.188	68744.25
846.435	68745.25
846.683	68341.25
846.93	68079.25
847.178	67741.25
847.425	67191.25
847.672	66591.25
847.92	65985.25
848.167	65472.25
848.414	65023.25
848.661	64403.25
848.908	64101.25
849.155	63789.25
849.402	63869.25
849.649	63869.25
849.896	64148.25
850.143	64546.25
850.39	64713.25
850.637	64761.25
850.884	64598.25
851.131	64273.25
851.377	64255.25
851.624	63810.25
851.87	63522.25
852.117	63271.25
852.364	62990.25
852.61	62688.25
852.856	62511.25
853.103	62306.25
853.349	62035.25
853.595	61710.25
853.842	61108.25
854.088	61115.25
854.334	61051.25
854.58	60944.25
854.826	60544.25
855.072	60177.25
855.318	59802.25
855.564	59406.25
855.81	58682.25
856.056	58229.25
856.302	57650.25
856.548	57434.25
856.793	57076.25
857.039	56596.25
857.285	56553.25
857.53	56559.25
857.776	56387.25
858.021	56762.25
858.267	56686.25
858.512	56765.25
858.758	56903.25
859.003	56801.25
859.248	57015.25
859.493	56725.25
859.739	56838.25
859.984	56512.25
860.229	56021.25
860.474	55675.25
860.719	55299.25
860.964	54987.25
861.209	54726.25
861.454	54425.25
861.699	54079.25
861.943	53658.25
862.188	53575.25
862.433	53284.25
862.678	52936.25
862.922	52871.25
863.167	52793.25
863.411	52571.25
863.656	52419.25
863.9	52211.25
864.145	52003.25
864.389	51740.25
864.634	51602.25
864.878	51295.25
865.122	50989.25
865.366	50902.25
865.61	50665.25
865.855	50827.25
866.099	50544.25
866.343	50574.25
866.587	50508.25
866.831	50333.25
867.074	50286.25
867.318	50199.25
867.562	50138.25
867.806	50188.25
868.05	50225.25
868.293	49907.25
868.537	49773.25
868.78	49614.25
869.024	49237.25
869.267	48840.25
869.511	48502.25
869.754	48102.25
869.998	47509.25
870.241	47126.25
870.484	47076.25
870.728	46531.25
870.971	46220.25
871.214	46043.25
871.457	45986.25
871.7	45869.25
871.943	46074.25
872.186	45866.25
872.429	45982.25
872.672	46109.25
872.915	45806.25
873.158	45690.25
873.4	45664.25
873.643	45502.25
873.886	45371.25
874.128	45105.25
874.371	44955.25
874.613	44867.25
874.856	44635.25
875.098	44471.25
875.341	44514.25
875.583	44381.25
875.825	44174.25
876.068	43968.25
876.31	43621.25
876.552	43285.25
876.794	42991.25
877.036	42462.25
877.278	42216.25
877.52	41994.25
877.762	41812.25
878.004	41571.25
878.246	41516.25
878.488	41355.25
878.73	41503.25
878.972	41233.25
879.213	41318.25
879.455	41169.25
879.697	41145.25
879.938	40987.25
880.18	40923.25
880.421	40681.25
880.663	40511.25
880.904	40631.25
881.145	40696.25
881.387	40766.25
881.628	40744.25
881.869	40350.25
882.11	40175.25
882.352	39952.25
882.593	39895.25
882.834	39657.25
883.075	39799.25
883.316	39540.25
883.557	39498.25
883.797	39093.25
884.038	38732.25
884.279	38352.25
884.52	37922.25
884.761	37613.25
885.001	37155.25
885.242	36966.25
885.482	36718.25
885.723	36409.25
885.963	36388.25
886.204	36127.25
886.444	35987.25
886.685	35944.25
886.925	35779.25
887.165	35600.25
887.405	35295.25
887.646	35293.25
887.886	35005.25
888.126	35183.25
888.366	35001.25
888.606	35135.25
888.846	35037.25
889.086	35242.25
889.326	35212.25
889.565	35028.25
889.805	35046.25
890.045	34962.25
890.285	34834.25
890.524	34833.25
890.764	34696.25
891.003	34406.25
891.243	33856.25
891.482	33654.25
891.722	33352.25
891.961	33079.25
892.201	32970.25
892.44	32807.25
892.679	32489.25
892.918	32462.25
893.158	32357.25
893.397	32268.25
893.636	32124.25
893.875	32061.25
894.114	31950.25
894.353	31716.25
894.592	31585.25
894.831	31454.25
895.069	31342.25
895.308	31043.25
895.547	30738.25
895.786	30763.25
896.024	30600.25
896.263	30552.25
896.501	30566.25
896.74	30463.25
896.978	30231.25
897.217	30224.25
897.455	30250.25
897.694	29963.25
897.932	30084.25
898.17	29878.25
898.408	29835.25
898.646	29645.25
898.885	29525.25
899.123	29314.25
899.361	29029.25
899.599	28990.25
899.837	28621.25
900.075	28453.25
900.312	28291.25
900.55	28019.25
900.788	27809.25
901.026	27582.25
901.263	27337.25
901.501	27252.25
901.739	27000.25
901.976	26792.25
902.214	26544.25
902.451	26572.25
902.689	26553.25
902.926	26472.25
903.163	26416.25
903.401	26377.25
903.638	26415.25
903.875	26405.25
904.112	26319.25
904.349	26262.25
904.586	26173.25
904.823	26032.25
905.06	25788.25
905.297	25708.25
905.534	25419.25
905.771	25264.25
906.008	25093.25
906.245	24992.25
906.481	24774.25
906.718	24752.25
906.955	24526.25
907.191	24354.25
907.428	24407.25
907.664	24404.25
907.901	24082.25
908.137	24069.25
908.374	23953.25
908.61	23851.25
908.846	23720.25
909.083	23584.25
909.319	23398.25
909.555	23342.25
909.791	23042.25
910.027	22853.25
910.263	22755.25
910.499	22644.25
910.735	22375.25
910.971	22226.25
911.207	21970.25
911.443	21828.25
911.678	21727.25
911.914	21633.25
912.15	21535.25
912.385	21582.25
912.621	21585.25
912.857	21468.25
913.092	21570.25
913.328	21470.25
913.563	21356.25
913.798	21435.25
914.034	21370.25
914.269	21316.25
914.504	21241.25
914.739	21020.25
914.975	20985.25
915.21	20839.25
915.445	20723.25
915.68	20498.25
915.915	20239.25
916.15	20064.25
916.384	19836.25
916.619	19603.25
916.854	19400.25
917.089	19327.25
917.324	19219.25
917.558	19020.25
917.793	18928.25
918.028	18728.25
918.262	18862.25
918.497	18734.25
918.731	18791.25
918.965	18790.25
919.2	18636.25
919.434	18573.25
919.668	18521.25
919.903	18591.25
920.137	18387.25
920.371	18279.25
920.605	18272.25
920.839	18008.25
921.073	17830.25
921.307	17677.25
921.541	17677.25
921.775	17475.25
922.009	17474.25
922.243	17308.25
922.476	17340.25
922.71	17239.25
922.944	17227.25
923.177	17301.25
923.411	17192.25
923.644	17146.25
923.878	17061.25
924.111	16921.25
924.345	16880.25
924.578	16820.25
924.811	16695.25
925.045	16608.25
925.278	16542.25
925.511	16437.25
925.744	16266.25
925.977	16114.25
926.21	15905.25
926.443	15839.25
926.676	15580.25
926.909	15556.25
927.142	15443.25
927.375	15343.25
927.608	15164.25
927.841	15071.25
928.073	15068.25
928.306	14983.25
928.539	14957.25
928.771	14965.25
929.004	14917.25
929.236	14846.25
929.469	14912.25
929.701	14888.25
929.933	14933.25
930.166	14810.25
930.398	14929.25
930.63	14719.25
930.862	14725.25
931.094	14661.25
931.327	14562.25
931.559	14355.25
931.791	14318.25
932.023	14247.25
932.255	14081.25
932.486	14016.25
932.718	13883.25
932.95	13666.25
933.182	13624.25
933.413	13659.25
933.645	13580.25
933.877	13489.25
934.108	13352.25
934.34	13372.25
934.571	13212.25
934.803	13294.25
935.034	13179.25
935.265	13157.25
935.497	13021.25
935.728	13011.25
935.959	12971.25
936.19	12810.25
936.422	12842.25
936.653	12734.25
936.884	12663.25
937.115	12453.25
937.346	12410.25
937.577	12306.25
937.807	12216.25
938.038	12192.25
938.269	12065.25
938.5	12093.25
938.73	12083.25
938.961	12037.25
939.192	12018.25
939.422	11967.25
939.653	11901.25
939.883	11878.25
940.114	11859.25
940.344	11833.25
940.574	11675.25
940.805	11644.25
941.035	11557.25
941.265	11461.25
941.495	11400.25
941.726	11319.25
941.956	11167.25
942.186	11121.25
942.416	11065.25
942.646	10879.25
942.876	10821.25
943.105	10735.25
943.335	10627.25
943.565	10598.25
943.795	10362.25
944.024	10306.25
944.254	10201.25
944.484	10245.25
944.713	10068.25
944.943	10019.25
945.172	9968.25
945.402	9959.25
945.631	9918.25
945.86	9875.25
946.09	9903.25
946.319	9864.25
946.548	9774.25
946.777	9778.25
947.006	9649.25
947.235	9632.25
947.465	9580.25
947.694	9567.25
947.922	9415.25
948.151	9353.25
948.38	9210.25
948.609	9185.25
948.838	9110.25
949.067	8999.25
949.295	8903.25
949.524	8853.25
949.752	8788.25
949.981	8680.25
950.21	8682.25
950.438	8601.25
950.666	8541.25
950.895	8457.25
951.123	8413.25
951.351	8347.25
951.58	8286.25
951.808	8262.25
952.036	8166.25
952.264	8169.25
952.492	8094.25
952.72	8015.25
952.948	7953.25
953.176	7848.25
953.404	7815.25
953.632	7788.25
953.86	7759.25
954.088	7635.25
954.315	7595.25
954.543	7527.25
954.771	7499.25
954.998	7442.25
955.226	7411.25
955.453	7339.25
955.681	7282.25
955.908	7297.25
956.135	7267.25
956.363	7234.25
956.59	7185.25
956.817	7208.25
957.045	7118.25
957.272	7167.25
957.499	7095.25
957.726	7061.25
957.953	7024.25
958.18	6991.25
958.407	6957.25
958.634	6903.25
958.861	6841.25
959.087	6771.25
959.314	6770.25
959.541	6696.25
959.767	6644.25
959.994	6574.25
960.221	6500.25
960.447	6512.25
960.674	6429.25
960.9	6341.25
961.127	6318.25
961.353	6352.25
961.579	6274.25
961.806	6229.25
962.032	6176.25
962.258	6126.25
962.484	6112.25
962.71	6044.25
962.936	6072.25
963.162	6035.25
963.388	6009.25
963.614	6010.25
963.84	5960.25
964.066	5997.25
964.292	5925.25
964.518	5958.25
964.743	5826.25
964.969	5865.25
965.195	5834.25
965.42	5747.25
965.646	5703.25
965.871	5691.25
966.097	5728.25
966.322	5674.25
966.547	5602.25
966.773	5638.25
966.998	5548.25
967.223	5562.25
967.448	5503.25
967.674	5466.25
967.899	5396.25
968.124	5346.25
968.349	5405.25
968.574	5313.25
968.799	5272.25
969.024	5282.25
969.248	5230.25
969.473	5251.25
969.698	5158.25
969.923	5127.25
970.147	5088.25
970.372	5058.25
970.596	5072.25
970.821	5034.25
971.046	4953.25
971.27	4959.25
971.494	4928.25
971.719	4831.25
971.943	4856.25
972.167	4801.25
972.392	4813.25
972.616	4757.25
972.84	4743.25
973.064	4735.25
973.288	4699.25
973.512	4628.25
973.736	4654.25
973.96	4617.25
974.184	4616.25
974.408	4560.25
974.631	4606.25
974.855	4551.25
975.079	4527.25
975.303	4457.25
975.526	4496.25
975.75	4495.25
975.973	4426.25
976.197	4411.25
976.42	4379.25
976.644	4408.25
976.867	4319.25
977.09	4370.25
977.313	4362.25
977.537	4270.25
977.76	4195.25
977.983	4258.25
978.206	4235.25
978.429	4132.25
978.652	4094.25
978.875	4065.25
979.098	4029.25
979.321	4027.25
979.544	4013.25
979.767	3967.25
979.989	3919.25
980.212	3937.25
980.435	3889.25
980.657	3861.25
980.88	3897.25
981.102	3884.25
981.325	3841.25
981.547	3811.25
981.77	3768.25
981.992	3787.25
982.214	3740.25
982.437	3743.25
982.659	3685.25
982.881	3725.25
983.103	3657.25
983.325	3643.25
983.547	3664.25
983.769	3648.25
983.991	3645.25
984.213	3618.25
984.435	3547.25
984.657	3566.25
984.879	3554.25
985.1	3539.25
985.322	3529.25
985.544	3489.25
985.765	3483.25
985.987	3434.25
986.208	3478.25
986.43	3466.25
986.651	3381.25
986.873	3368.25
987.094	3366.25
987.315	3363.25
987.536	3320.25
987.758	3321.25
987.979	3264.25
988.2	3258.25
988.421	3250.25
988.642	3249.25
988.863	3213.25
989.084	3179.25
989.305	3185.25
989.526	3117.25
989.747	3127.25
989.967	3138.25
990.188	3116.25
990.409	3076.25
990.629	3031.25
990.85	3058.25
991.071	3014.25
991.291	2954.25
991.512	2998.25
991.732	2952.25
991.952	2962.25
992.173	2950.25
992.393	2954.25
992.613	2892.25
992.834	2929.25
993.054	2909.25
993.274	2864.25
993.494	2888.25
993.714	2884.25
993.934	2858.25
994.154	2878.25
994.374	2856.25
994.594	2837.25
994.813	2846.25
995.033	2843.25
995.253	2790.25
995.473	2782.25
995.692	2771.25
995.912	2774.25
996.131	2754.25
996.351	2710.25
996.57	2680.25
996.79	2675.25
997.009	2705.25
997.228	2640.25
997.448	2604.25
997.667	2563.25
997.886	2570.25
998.105	2576.25
998.325	2572.25
998.544	2523.25
998.763	2473.25
998.982	2488.25
999.201	2457.25
999.419	2459.25
999.638	2455.25
999.857	2416.25
1000.076	2445.25
1000.295	2407.25
1000.513	2428.25
1000.732	2425.25
1000.95	2366.25
1001.169	2408.25
1001.388	2397.25
1001.606	2360.25
1001.824	2347.25
1002.043	2339.25
1002.261	2355.25
1002.479	2347.25
1002.698	2352.25
1002.916	2309.25
1003.134	2308.25
1003.352	2294.25
1003.57	2300.25
1003.788	2291.25
1004.006	2268.25
1004.224	2276.25
1004.442	2265.25
1004.66	2258.25
1004.878	2249.25
1005.095	2257.25
1005.313	2237.25
1005.531	2228.25
1005.748	2212.25
1005.966	2311.25
1006.184	2189.25
1006.401	2211.25
1006.618	2197.25
1006.836	2202.25
1007.053	2183.25
1007.271	2178.25
1007.488	2164.25
1007.705	2196.25
1007.922	2190.25
1008.139	2183.25
1008.357	2204.25
1008.574	2192.25
1008.791	2214.25
1009.008	2229.25
1009.225	2229.25
1009.441	2275.25
1009.658	2282.25
1009.875	2288.25
1010.092	2246.25
1010.309	2261.25
1010.525	2260.25
1010.742	2183.25
1010.958	2173.25
1011.175	2208.25
1011.391	2155.25
1011.608	2144.25
1011.824	2095.25
1012.041	2130.25
1012.257	2086.25
1012.473	2081.25
1012.689	2049.25
1012.906	2069.25
1013.122	2042.25
1013.338	2038.25
1013.554	2059.25
1013.77	2005.25
1013.986	2054.25
1014.202	2099.25
1014.418	2135.25
1014.634	2163.25
1014.849	2196.25
1015.065	2235.25
1015.281	2220.25
1015.496	2253.25
1015.712	2192.25
1015.928	2139.25
1016.143	2098.25
1016.359	2079.25
1016.574	2029.25
1016.79	2017.25
1017.005	1938.25
1017.22	1896.25
1017.435	1855.25
1017.651	1801.25
1017.866	1784.25
1018.081	1780.25
1018.296	1740.25
1018.511	1704.25
1018.726	1733.25
1018.941	1697.25
1019.156	1668.25
1019.371	1677.25
1019.586	1708.25
1019.801	1676.25
1020.015	1645.25
1020.23	1666.25
1020.445	1634.25
1020.659	1604.25
1020.874	1606.25
1021.088	1570.25
1021.303	1503.25
1021.517	1500.25
1021.732	1492.25
1021.946	1443.25
1022.16	1477.25
1022.375	1445.25
1022.589	1409.25
1022.803	1398.25
1023.017	1391.25
1023.231	1325.25
1023.445	1352.25
1023.659	1290.25
1023.873	1273.25
1024.087	1259.25
1024.301	1231.25
1024.515	1203.25
1024.729	1210.25
1024.942	1164.25
1025.156	1155.25
1025.37	1152.25
1025.583	1134.25
1025.797	1090.25
1026.01	1097.25
1026.224	1067.25
1026.437	1026.25
1026.651	1005.25
1026.864	956.25
1027.077	959.25
1027.291	933.25
1027.504	911.25
1027.717	893.25
1027.93	867.25
1028.143	833.25
1028.356	809.25
1028.569	777.25
1028.782	725.25
1028.995	-2.75
1029.208	-2.75
1029.421	-1.75
1029.634	-2.75
