Data from QEP037381__432__15-52-46-571.txt Node

Date: Mon Mar 14 15:52:46 EDT 2022
User: dcclab
Spectrometer: QEP03738
Trigger mode: 4
Integration Time (sec): 2.500000E0
Scans to average: 1
Electric dark correction enabled: true
Nonlinearity correction enabled: false
Boxcar width: 0
XAxis mode: Wavelengths
Number of Pixels in Spectrum: 1044
>>>>>Begin Spectral Data<<<<<
783.959	9.5
784.218	4.5
784.476	-1.5
784.734	-3.5
784.992	258.5
785.251	232.5
785.509	242.5
785.767	226.5
786.025	231.5
786.283	243.5
786.541	240.5
786.798	242.5
787.056	231.5
787.314	211.5
787.572	228.5
787.83	220.5
788.087	235.5
788.345	234.5
788.602	227.5
788.86	228.5
789.117	234.5
789.375	234.5
789.632	226.5
789.89	227.5
790.147	239.5
790.404	253.5
790.661	236.5
790.919	263.5
791.176	262.5
791.433	263.5
791.69	255.5
791.947	268.5
792.204	256.5
792.461	283.5
792.718	282.5
792.974	287.5
793.231	294.5
793.488	306.5
793.745	319.5
794.001	336.5
794.258	346.5
794.514	360.5
794.771	374.5
795.027	391.5
795.284	422.5
795.54	430.5
795.797	454.5
796.053	520.5
796.309	535.5
796.565	588.5
796.822	639.5
797.078	729.5
797.334	856.5
797.59	998.5
797.846	1250.5
798.102	1655.5
798.358	2184.5
798.614	3044.5
798.869	4515.5
799.125	6675.5
799.381	9743.5
799.637	13924.5
799.892	18830.5
800.148	24333.5
800.403	29722.5
800.659	34305.5
800.914	37674.5
801.17	40079.5
801.425	41675.5
801.68	42748.5
801.936	43819.5
802.191	44521.5
802.446	45405.5
802.701	46509.5
802.957	47458.5
803.212	48321.5
803.467	49092.5
803.722	50015.5
803.977	51073.5
804.232	52009.5
804.486	52988.5
804.741	54053.5
804.996	55060.5
805.251	55880.5
805.505	56761.5
805.76	57704.5
806.015	58437.5
806.269	59206.5
806.524	59770.5
806.778	60320.5
807.033	60693.5
807.287	61392.5
807.541	62103.5
807.796	62926.5
808.05	63586.5
808.304	64136.5
808.558	64458.5
808.812	64921.5
809.066	65446.5
809.32	65670.5
809.574	66295.5
809.828	66540.5
810.082	66846.5
810.336	67530.5
810.59	67861.5
810.844	68876.5
811.097	69445.5
811.351	70576.5
811.605	71445.5
811.858	72577.5
812.112	73691.5
812.365	75068.5
812.619	76141.5
812.872	77039.5
813.126	78018.5
813.379	79189.5
813.632	80085.5
813.885	80821.5
814.139	82055.5
814.392	83358.5
814.645	84678.5
814.898	86186.5
815.151	87705.5
815.404	88985.5
815.657	90353.5
815.91	91841.5
816.163	92753.5
816.416	93720.5
816.668	94380.5
816.921	94732.5
817.174	94797.5
817.426	94843.5
817.679	94921.5
817.931	94848.5
818.184	94716.5
818.436	94651.5
818.689	94668.5
818.941	94790.5
819.194	94955.5
819.446	95147.5
819.698	95443.5
819.95	96153.5
820.202	96288.5
820.455	96599.5
820.707	96727.5
820.959	96816.5
821.211	96718.5
821.462	96485.5
821.714	96314.5
821.966	95640.5
822.218	95075.5
822.47	94421.5
822.722	94125.5
822.973	93980.5
823.225	93464.5
823.476	93371.5
823.728	93468.5
823.979	93203.5
824.231	93181.5
824.482	93235.5
824.734	93119.5
824.985	93235.5
825.236	92884.5
825.487	92590.5
825.739	92505.5
825.99	91884.5
826.241	91527.5
826.492	90961.5
826.743	90338.5
826.994	89780.5
827.245	89505.5
827.496	89336.5
827.747	88846.5
827.997	88748.5
828.248	88964.5
828.499	88640.5
828.75	88919.5
829	88929.5
829.251	88810.5
829.501	88613.5
829.752	88135.5
830.002	87752.5
830.253	87167.5
830.503	86365.5
830.753	85884.5
831.004	85496.5
831.254	84764.5
831.504	84565.5
831.754	84588.5
832.004	84290.5
832.254	84032.5
832.504	84428.5
832.754	84087.5
833.004	84192.5
833.254	83848.5
833.504	83526.5
833.754	83197.5
834.003	83142.5
834.253	82936.5
834.503	82371.5
834.752	81757.5
835.002	81251.5
835.252	80763.5
835.501	80480.5
835.75	80288.5
836	79868.5
836.249	79944.5
836.499	79765.5
836.748	79562.5
836.997	79731.5
837.246	79614.5
837.495	80064.5
837.744	80356.5
837.993	80810.5
838.242	80711.5
838.491	80585.5
838.74	79641.5
838.989	78540.5
839.238	77734.5
839.487	77131.5
839.736	76606.5
839.984	76371.5
840.233	75934.5
840.482	75631.5
840.73	75167.5
840.979	74802.5
841.227	74595.5
841.476	74359.5
841.724	74027.5
841.972	73907.5
842.221	73677.5
842.469	73366.5
842.717	72832.5
842.965	72758.5
843.213	72352.5
843.461	72292.5
843.71	71850.5
843.958	71489.5
844.205	71473.5
844.453	71383.5
844.701	71111.5
844.949	71177.5
845.197	70854.5
845.445	70722.5
845.692	70664.5
845.94	70953.5
846.188	70821.5
846.435	70691.5
846.683	70467.5
846.93	70060.5
847.178	69647.5
847.425	69128.5
847.672	68594.5
847.92	67852.5
848.167	67400.5
848.414	66614.5
848.661	66284.5
848.908	65926.5
849.155	65777.5
849.402	65729.5
849.649	65638.5
849.896	66068.5
850.143	66168.5
850.39	66586.5
850.637	66487.5
850.884	66549.5
851.131	66226.5
851.377	65946.5
851.624	65772.5
851.87	65366.5
852.117	65162.5
852.364	64795.5
852.61	64529.5
852.856	64206.5
853.103	63948.5
853.349	63809.5
853.595	63265.5
853.842	62959.5
854.088	62733.5
854.334	62712.5
854.58	62757.5
854.826	62428.5
855.072	61891.5
855.318	61426.5
855.564	60803.5
855.81	60279.5
856.056	59875.5
856.302	59215.5
856.548	58923.5
856.793	58665.5
857.039	58248.5
857.285	58120.5
857.53	57947.5
857.776	58137.5
858.021	58192.5
858.267	58412.5
858.512	58445.5
858.758	58403.5
859.003	58279.5
859.248	58431.5
859.493	58410.5
859.739	58138.5
859.984	58005.5
860.229	57628.5
860.474	57324.5
860.719	56838.5
860.964	56388.5
861.209	56173.5
861.454	55978.5
861.699	55384.5
861.943	55080.5
862.188	54727.5
862.433	54755.5
862.678	54396.5
862.922	54323.5
863.167	54196.5
863.411	53879.5
863.656	53757.5
863.9	53651.5
864.145	53609.5
864.389	53144.5
864.634	52955.5
864.878	52783.5
865.122	52416.5
865.366	52315.5
865.61	52216.5
865.855	52004.5
866.099	51902.5
866.343	51889.5
866.587	51675.5
866.831	51693.5
867.074	51698.5
867.318	51560.5
867.562	51557.5
867.806	51595.5
868.05	51430.5
868.293	51302.5
868.537	50995.5
868.78	50997.5
869.024	50462.5
869.267	50230.5
869.511	49729.5
869.754	49283.5
869.998	48956.5
870.241	48493.5
870.484	47979.5
870.728	47822.5
870.971	47518.5
871.214	47333.5
871.457	47050.5
871.7	47113.5
871.943	47090.5
872.186	46990.5
872.429	47043.5
872.672	47030.5
872.915	46884.5
873.158	46768.5
873.4	46737.5
873.643	46730.5
873.886	46577.5
874.128	46330.5
874.371	46044.5
874.613	46034.5
874.856	45805.5
875.098	45626.5
875.341	45610.5
875.583	45674.5
875.825	45345.5
876.068	45168.5
876.31	44829.5
876.552	44330.5
876.794	44067.5
877.036	43651.5
877.278	43243.5
877.52	43241.5
877.762	43010.5
878.004	42823.5
878.246	42589.5
878.488	42581.5
878.73	42585.5
878.972	42361.5
879.213	42461.5
879.455	42286.5
879.697	42099.5
879.938	42091.5
880.18	42005.5
880.421	41751.5
880.663	41739.5
880.904	41651.5
881.145	41669.5
881.387	41852.5
881.628	41638.5
881.869	41444.5
882.11	41169.5
882.352	41061.5
882.593	40863.5
882.834	40778.5
883.075	40803.5
883.316	40473.5
883.557	40346.5
883.797	40240.5
884.038	39852.5
884.279	39313.5
884.52	38870.5
884.761	38495.5
885.001	38337.5
885.242	37820.5
885.482	37608.5
885.723	37298.5
885.963	37194.5
886.204	37078.5
886.444	36873.5
886.685	36785.5
886.925	36621.5
887.165	36433.5
887.405	36222.5
887.646	36056.5
887.886	36075.5
888.126	35903.5
888.366	35948.5
888.606	35929.5
888.846	36082.5
889.086	36088.5
889.326	35993.5
889.565	35888.5
889.805	35838.5
890.045	35690.5
890.285	35655.5
890.524	35607.5
890.764	35540.5
891.003	35157.5
891.243	34828.5
891.482	34570.5
891.722	34253.5
891.961	33900.5
892.201	33767.5
892.44	33612.5
892.679	33283.5
892.918	33161.5
893.158	33134.5
893.397	33067.5
893.636	33044.5
893.875	32704.5
894.114	32595.5
894.353	32446.5
894.592	32377.5
894.831	32195.5
895.069	31972.5
895.308	31763.5
895.547	31649.5
895.786	31379.5
896.024	31506.5
896.263	31320.5
896.501	31142.5
896.74	31263.5
896.978	31137.5
897.217	31044.5
897.455	30966.5
897.694	30794.5
897.932	30685.5
898.17	30585.5
898.408	30503.5
898.646	30344.5
898.885	30207.5
899.123	30028.5
899.361	29735.5
899.599	29541.5
899.837	29444.5
900.075	29167.5
900.312	28965.5
900.55	28649.5
900.788	28437.5
901.026	28163.5
901.263	27863.5
901.501	27785.5
901.739	27611.5
901.976	27464.5
902.214	27411.5
902.451	27201.5
902.689	27257.5
902.926	27081.5
903.163	27102.5
903.401	27016.5
903.638	26932.5
903.875	26932.5
904.112	26934.5
904.349	26855.5
904.586	26822.5
904.823	26686.5
905.06	26407.5
905.297	26191.5
905.534	26073.5
905.771	26033.5
906.008	25767.5
906.245	25481.5
906.481	25387.5
906.718	25247.5
906.955	25021.5
907.191	25024.5
907.428	24856.5
907.664	24818.5
907.901	24709.5
908.137	24590.5
908.374	24650.5
908.61	24433.5
908.846	24201.5
909.083	24262.5
909.319	24055.5
909.555	23883.5
909.791	23619.5
910.027	23399.5
910.263	23375.5
910.499	23088.5
910.735	22875.5
910.971	22676.5
911.207	22431.5
911.443	22460.5
911.678	22235.5
911.914	22183.5
912.15	22157.5
912.385	22045.5
912.621	22068.5
912.857	21995.5
913.092	22015.5
913.328	21998.5
913.563	21883.5
913.798	21824.5
914.034	21919.5
914.269	21752.5
914.504	21763.5
914.739	21547.5
914.975	21489.5
915.21	21352.5
915.445	21119.5
915.68	20980.5
915.915	20780.5
916.15	20573.5
916.384	20251.5
916.619	20105.5
916.854	19856.5
917.089	19771.5
917.324	19645.5
917.558	19403.5
917.793	19408.5
918.028	19371.5
918.262	19158.5
918.497	19231.5
918.731	19255.5
918.965	19158.5
919.2	19057.5
919.434	19109.5
919.668	18988.5
919.903	18963.5
920.137	18912.5
920.371	18644.5
920.605	18579.5
920.839	18464.5
921.073	18305.5
921.307	18162.5
921.541	18074.5
921.775	17807.5
922.009	17901.5
922.243	17694.5
922.476	17776.5
922.71	17726.5
922.944	17708.5
923.177	17530.5
923.411	17575.5
923.644	17511.5
923.878	17460.5
924.111	17340.5
924.345	17211.5
924.578	17223.5
924.811	17099.5
925.045	16981.5
925.278	16815.5
925.511	16722.5
925.744	16496.5
925.977	16484.5
926.21	16330.5
926.443	16174.5
926.676	16060.5
926.909	15903.5
927.142	15787.5
927.375	15574.5
927.608	15482.5
927.841	15495.5
928.073	15393.5
928.306	15317.5
928.539	15326.5
928.771	15400.5
929.004	15226.5
929.236	15246.5
929.469	15266.5
929.701	15248.5
929.933	15264.5
930.166	15134.5
930.398	15174.5
930.63	15093.5
930.862	14953.5
931.094	14873.5
931.327	14806.5
931.559	14702.5
931.791	14585.5
932.023	14515.5
932.255	14371.5
932.486	14266.5
932.718	14152.5
932.95	14045.5
933.182	14037.5
933.413	13940.5
933.645	13742.5
933.877	13754.5
934.108	13692.5
934.34	13655.5
934.571	13595.5
934.803	13428.5
935.034	13516.5
935.265	13396.5
935.497	13348.5
935.728	13213.5
935.959	13182.5
936.19	13104.5
936.422	13118.5
936.653	12929.5
936.884	12827.5
937.115	12780.5
937.346	12619.5
937.577	12529.5
937.807	12435.5
938.038	12509.5
938.269	12395.5
938.5	12338.5
938.73	12241.5
938.961	12341.5
939.192	12171.5
939.422	12236.5
939.653	12188.5
939.883	12158.5
940.114	12109.5
940.344	12038.5
940.574	12000.5
940.805	11862.5
941.035	11776.5
941.265	11701.5
941.495	11564.5
941.726	11472.5
941.956	11423.5
942.186	11327.5
942.416	11232.5
942.646	11107.5
942.876	11015.5
943.105	10926.5
943.335	10888.5
943.565	10730.5
943.795	10638.5
944.024	10543.5
944.254	10425.5
944.484	10321.5
944.713	10353.5
944.943	10131.5
945.172	10179.5
945.402	10138.5
945.631	10097.5
945.86	10119.5
946.09	10098.5
946.319	10053.5
946.548	9970.5
946.777	9944.5
947.006	9889.5
947.235	9828.5
947.465	9822.5
947.694	9702.5
947.922	9603.5
948.151	9495.5
948.38	9398.5
948.609	9320.5
948.838	9239.5
949.067	9203.5
949.295	9135.5
949.524	9000.5
949.752	8945.5
949.981	8885.5
950.21	8768.5
950.438	8712.5
950.666	8679.5
950.895	8612.5
951.123	8523.5
951.351	8449.5
951.58	8467.5
951.808	8441.5
952.036	8346.5
952.264	8267.5
952.492	8259.5
952.72	8235.5
952.948	8128.5
953.176	8095.5
953.404	8001.5
953.632	7911.5
953.86	7886.5
954.088	7775.5
954.315	7738.5
954.543	7660.5
954.771	7635.5
954.998	7509.5
955.226	7573.5
955.453	7490.5
955.681	7431.5
955.908	7423.5
956.135	7421.5
956.363	7418.5
956.59	7344.5
956.817	7303.5
957.045	7267.5
957.272	7291.5
957.499	7163.5
957.726	7194.5
957.953	7167.5
958.18	7060.5
958.407	7067.5
958.634	7070.5
958.861	6978.5
959.087	6949.5
959.314	6847.5
959.541	6819.5
959.767	6742.5
959.994	6743.5
960.221	6695.5
960.447	6652.5
960.674	6576.5
960.9	6457.5
961.127	6493.5
961.353	6388.5
961.579	6325.5
961.806	6330.5
962.032	6299.5
962.258	6200.5
962.484	6310.5
962.71	6167.5
962.936	6157.5
963.162	6198.5
963.388	6104.5
963.614	6112.5
963.84	6059.5
964.066	6093.5
964.292	6050.5
964.518	6029.5
964.743	5971.5
964.969	5952.5
965.195	5904.5
965.42	5882.5
965.646	5896.5
965.871	5843.5
966.097	5810.5
966.322	5807.5
966.547	5723.5
966.773	5705.5
966.998	5646.5
967.223	5625.5
967.448	5639.5
967.674	5555.5
967.899	5524.5
968.124	5444.5
968.349	5481.5
968.574	5434.5
968.799	5427.5
969.024	5449.5
969.248	5327.5
969.473	5295.5
969.698	5280.5
969.923	5224.5
970.147	5214.5
970.372	5151.5
970.596	5139.5
970.821	5094.5
971.046	5072.5
971.27	5037.5
971.494	5028.5
971.719	4929.5
971.943	4932.5
972.167	4923.5
972.392	4922.5
972.616	4866.5
972.84	4824.5
973.064	4791.5
973.288	4768.5
973.512	4766.5
973.736	4752.5
973.96	4709.5
974.184	4679.5
974.408	4614.5
974.631	4675.5
974.855	4661.5
975.079	4576.5
975.303	4618.5
975.526	4546.5
975.75	4515.5
975.973	4533.5
976.197	4516.5
976.42	4472.5
976.644	4460.5
976.867	4413.5
977.09	4432.5
977.313	4371.5
977.537	4312.5
977.76	4335.5
977.983	4301.5
978.206	4223.5
978.429	4212.5
978.652	4241.5
978.875	4156.5
979.098	4123.5
979.321	4127.5
979.544	4058.5
979.767	4040.5
979.989	4016.5
980.212	3973.5
980.435	4028.5
980.657	3942.5
980.88	3969.5
981.102	3957.5
981.325	3917.5
981.547	3877.5
981.77	3866.5
981.992	3859.5
982.214	3810.5
982.437	3847.5
982.659	3822.5
982.881	3815.5
983.103	3737.5
983.325	3743.5
983.547	3697.5
983.769	3701.5
983.991	3675.5
984.213	3702.5
984.435	3634.5
984.657	3643.5
984.879	3625.5
985.1	3606.5
985.322	3571.5
985.544	3520.5
985.765	3573.5
985.987	3532.5
986.208	3560.5
986.43	3526.5
986.651	3478.5
986.873	3465.5
987.094	3399.5
987.315	3438.5
987.536	3369.5
987.758	3385.5
987.979	3285.5
988.2	3363.5
988.421	3281.5
988.642	3266.5
988.863	3278.5
989.084	3215.5
989.305	3258.5
989.526	3221.5
989.747	3200.5
989.967	3127.5
990.188	3149.5
990.409	3098.5
990.629	3137.5
990.85	3062.5
991.071	3069.5
991.291	3073.5
991.512	3047.5
991.732	3047.5
991.952	3022.5
992.173	3009.5
992.393	2978.5
992.613	2955.5
992.834	2976.5
993.054	2974.5
993.274	2936.5
993.494	2934.5
993.714	2950.5
993.934	2947.5
994.154	2935.5
994.374	2929.5
994.594	2856.5
994.813	2913.5
995.033	2901.5
995.253	2859.5
995.473	2852.5
995.692	2800.5
995.912	2803.5
996.131	2752.5
996.351	2747.5
996.57	2746.5
996.79	2721.5
997.009	2651.5
997.228	2674.5
997.448	2642.5
997.667	2644.5
997.886	2590.5
998.105	2577.5
998.325	2566.5
998.544	2580.5
998.763	2542.5
998.982	2542.5
999.201	2501.5
999.419	2462.5
999.638	2487.5
999.857	2466.5
1000.076	2475.5
1000.295	2423.5
1000.513	2458.5
1000.732	2440.5
1000.95	2382.5
1001.169	2442.5
1001.388	2427.5
1001.606	2412.5
1001.824	2377.5
1002.043	2382.5
1002.261	2393.5
1002.479	2349.5
1002.698	2362.5
1002.916	2351.5
1003.134	2330.5
1003.352	2324.5
1003.57	2319.5
1003.788	2325.5
1004.006	2311.5
1004.224	2319.5
1004.442	2318.5
1004.66	2305.5
1004.878	2262.5
1005.095	2240.5
1005.313	2299.5
1005.531	2270.5
1005.748	2254.5
1005.966	2340.5
1006.184	2246.5
1006.401	2250.5
1006.618	2224.5
1006.836	2234.5
1007.053	2230.5
1007.271	2218.5
1007.488	2216.5
1007.705	2216.5
1007.922	2236.5
1008.139	2153.5
1008.357	2209.5
1008.574	2189.5
1008.791	2244.5
1009.008	2292.5
1009.225	2289.5
1009.441	2316.5
1009.658	2288.5
1009.875	2327.5
1010.092	2312.5
1010.309	2289.5
1010.525	2272.5
1010.742	2245.5
1010.958	2215.5
1011.175	2194.5
1011.391	2158.5
1011.608	2141.5
1011.824	2137.5
1012.041	2168.5
1012.257	2124.5
1012.473	2091.5
1012.689	2085.5
1012.906	2084.5
1013.122	2111.5
1013.338	2068.5
1013.554	2074.5
1013.77	2083.5
1013.986	2104.5
1014.202	2122.5
1014.418	2126.5
1014.634	2188.5
1014.849	2209.5
1015.065	2227.5
1015.281	2228.5
1015.496	2240.5
1015.712	2211.5
1015.928	2179.5
1016.143	2105.5
1016.359	2084.5
1016.574	2079.5
1016.79	2034.5
1017.005	1970.5
1017.22	1924.5
1017.435	1869.5
1017.651	1874.5
1017.866	1844.5
1018.081	1783.5
1018.296	1752.5
1018.511	1749.5
1018.726	1741.5
1018.941	1748.5
1019.156	1674.5
1019.371	1689.5
1019.586	1692.5
1019.801	1662.5
1020.015	1671.5
1020.23	1675.5
1020.445	1626.5
1020.659	1617.5
1020.874	1597.5
1021.088	1587.5
1021.303	1533.5
1021.517	1541.5
1021.732	1527.5
1021.946	1488.5
1022.16	1524.5
1022.375	1467.5
1022.589	1451.5
1022.803	1414.5
1023.017	1397.5
1023.231	1352.5
1023.445	1377.5
1023.659	1340.5
1023.873	1287.5
1024.087	1270.5
1024.301	1246.5
1024.515	1221.5
1024.729	1204.5
1024.942	1193.5
1025.156	1186.5
1025.37	1150.5
1025.583	1157.5
1025.797	1079.5
1026.01	1101.5
1026.224	1060.5
1026.437	1057.5
1026.651	1006.5
1026.864	970.5
1027.077	973.5
1027.291	921.5
1027.504	948.5
1027.717	893.5
1027.93	879.5
1028.143	853.5
1028.356	826.5
1028.569	796.5
1028.782	725.5
1028.995	-4.5
1029.208	0.5
1029.421	-3.5
1029.634	-1.5
