Data from QEP037381__463__15-56-14-075.txt Node

Date: Mon Mar 14 15:56:14 EDT 2022
User: dcclab
Spectrometer: QEP03738
Trigger mode: 4
Integration Time (sec): 2.500000E0
Scans to average: 1
Electric dark correction enabled: true
Nonlinearity correction enabled: false
Boxcar width: 0
XAxis mode: Wavelengths
Number of Pixels in Spectrum: 1044
>>>>>Begin Spectral Data<<<<<
783.959	14.5
784.218	-3.5
784.476	-4.5
784.734	-4.5
784.992	252.5
785.251	250.5
785.509	232.5
785.767	230.5
786.025	229.5
786.283	231.5
786.541	227.5
786.798	234.5
787.056	221.5
787.314	210.5
787.572	220.5
787.83	222.5
788.087	226.5
788.345	213.5
788.602	218.5
788.86	230.5
789.117	226.5
789.375	214.5
789.632	231.5
789.89	217.5
790.147	236.5
790.404	233.5
790.661	246.5
790.919	249.5
791.176	248.5
791.433	246.5
791.69	261.5
791.947	256.5
792.204	244.5
792.461	261.5
792.718	272.5
792.974	268.5
793.231	287.5
793.488	303.5
793.745	294.5
794.001	321.5
794.258	338.5
794.514	326.5
794.771	353.5
795.027	368.5
795.284	377.5
795.54	410.5
795.797	411.5
796.053	455.5
796.309	496.5
796.565	526.5
796.822	577.5
797.078	670.5
797.334	775.5
797.59	900.5
797.846	1123.5
798.102	1468.5
798.358	1907.5
798.614	2732.5
798.869	3985.5
799.125	5811.5
799.381	8555.5
799.637	12102.5
799.892	16439.5
800.148	21134.5
800.403	25832.5
800.659	29725.5
800.914	32836.5
801.17	34975.5
801.425	36387.5
801.68	37414.5
801.936	38337.5
802.191	39138.5
802.446	40097.5
802.701	40873.5
802.957	41632.5
803.212	42495.5
803.467	43372.5
803.722	44309.5
803.977	45062.5
804.232	45989.5
804.486	47069.5
804.741	47953.5
804.996	48677.5
805.251	49623.5
805.505	50484.5
805.76	51262.5
806.015	52076.5
806.269	52604.5
806.524	53534.5
806.778	53965.5
807.033	54540.5
807.287	55215.5
807.541	56025.5
807.796	56808.5
808.05	57343.5
808.304	57986.5
808.558	58338.5
808.812	58600.5
809.066	59119.5
809.32	59584.5
809.574	59771.5
809.828	60472.5
810.082	60696.5
810.336	61290.5
810.59	61876.5
810.844	62602.5
811.097	63342.5
811.351	64397.5
811.605	65288.5
811.858	66354.5
812.112	67494.5
812.365	68591.5
812.619	69548.5
812.872	70774.5
813.126	71654.5
813.379	72658.5
813.632	73455.5
813.885	74655.5
814.139	75561.5
814.392	76891.5
814.645	78042.5
814.898	79602.5
815.151	81164.5
815.404	82623.5
815.657	83914.5
815.91	85256.5
816.163	86291.5
816.416	87160.5
816.668	87971.5
816.921	88350.5
817.174	88610.5
817.426	88357.5
817.679	88187.5
817.931	88435.5
818.184	88400.5
818.436	88446.5
818.689	88711.5
818.941	88758.5
819.194	89241.5
819.446	89504.5
819.698	89794.5
819.95	90352.5
820.202	90596.5
820.455	90939.5
820.707	91306.5
820.959	91434.5
821.211	91294.5
821.462	91040.5
821.714	90909.5
821.966	90661.5
822.218	90487.5
822.47	89729.5
822.722	89502.5
822.973	89161.5
823.225	88850.5
823.476	88974.5
823.728	88861.5
823.979	88933.5
824.231	88610.5
824.482	88947.5
824.734	88955.5
824.985	88960.5
825.236	88784.5
825.487	88547.5
825.739	88297.5
825.99	88021.5
826.241	87918.5
826.492	87381.5
826.743	86854.5
826.994	86676.5
827.245	86252.5
827.496	86191.5
827.747	85881.5
827.997	85946.5
828.248	86162.5
828.499	85968.5
828.75	85957.5
829	86077.5
829.251	85903.5
829.501	85621.5
829.752	85434.5
830.002	84948.5
830.253	84761.5
830.503	84150.5
830.753	83498.5
831.004	83019.5
831.254	82810.5
831.504	82582.5
831.754	82514.5
832.004	82267.5
832.254	82320.5
832.504	82371.5
832.754	82424.5
833.004	82535.5
833.254	82224.5
833.504	81740.5
833.754	81964.5
834.003	81555.5
834.253	81174.5
834.503	80855.5
834.752	80225.5
835.002	79831.5
835.252	79557.5
835.501	78964.5
835.75	79046.5
836	78830.5
836.249	78924.5
836.499	78561.5
836.748	78481.5
836.997	78509.5
837.246	78943.5
837.495	79402.5
837.744	79982.5
837.993	80675.5
838.242	81116.5
838.491	80842.5
838.74	79511.5
838.989	78389.5
839.238	77735.5
839.487	76857.5
839.736	76382.5
839.984	75877.5
840.233	75582.5
840.482	75216.5
840.73	75080.5
840.979	74739.5
841.227	74468.5
841.476	73965.5
841.724	73901.5
841.972	73707.5
842.221	73522.5
842.469	73223.5
842.717	72884.5
842.965	72498.5
843.213	72369.5
843.461	72405.5
843.71	71916.5
843.958	71626.5
844.205	71574.5
844.453	71278.5
844.701	71446.5
844.949	71114.5
845.197	71172.5
845.445	71452.5
845.692	71222.5
845.94	71370.5
846.188	71200.5
846.435	71201.5
846.683	70973.5
846.93	70660.5
847.178	70153.5
847.425	69690.5
847.672	69146.5
847.92	68626.5
848.167	67979.5
848.414	67464.5
848.661	67122.5
848.908	66700.5
849.155	66513.5
849.402	66777.5
849.649	66832.5
849.896	67021.5
850.143	67216.5
850.39	67608.5
850.637	67604.5
850.884	67587.5
851.131	67259.5
851.377	67184.5
851.624	66803.5
851.87	66659.5
852.117	66249.5
852.364	66040.5
852.61	65539.5
852.856	65600.5
853.103	65135.5
853.349	65043.5
853.595	64674.5
853.842	64534.5
854.088	64204.5
854.334	64037.5
854.58	63961.5
854.826	63648.5
855.072	63190.5
855.318	62746.5
855.564	62052.5
855.81	61440.5
856.056	61018.5
856.302	60569.5
856.548	60134.5
856.793	59831.5
857.039	59338.5
857.285	59199.5
857.53	59189.5
857.776	59458.5
858.021	59482.5
858.267	59709.5
858.512	60004.5
858.758	60056.5
859.003	59865.5
859.248	59923.5
859.493	59862.5
859.739	59709.5
859.984	59345.5
860.229	59085.5
860.474	58660.5
860.719	58438.5
860.964	58023.5
861.209	57497.5
861.454	57221.5
861.699	56739.5
861.943	56440.5
862.188	56390.5
862.433	56153.5
862.678	55832.5
862.922	55926.5
863.167	55613.5
863.411	55507.5
863.656	55259.5
863.9	55246.5
864.145	54907.5
864.389	54684.5
864.634	54514.5
864.878	54538.5
865.122	54120.5
865.366	53833.5
865.61	53826.5
865.855	53565.5
866.099	53499.5
866.343	53390.5
866.587	53226.5
866.831	53362.5
867.074	53322.5
867.318	53221.5
867.562	53257.5
867.806	53229.5
868.05	53122.5
868.293	52889.5
868.537	52712.5
868.78	52532.5
869.024	52236.5
869.267	51825.5
869.511	51376.5
869.754	51131.5
869.998	50766.5
870.241	50253.5
870.484	50052.5
870.728	49577.5
870.971	49260.5
871.214	48895.5
871.457	48832.5
871.7	48833.5
871.943	48871.5
872.186	48818.5
872.429	48993.5
872.672	48836.5
872.915	48685.5
873.158	48714.5
873.4	48687.5
873.643	48508.5
873.886	48390.5
874.128	48145.5
874.371	48095.5
874.613	47886.5
874.856	47647.5
875.098	47630.5
875.341	47285.5
875.583	47470.5
875.825	47074.5
876.068	46707.5
876.31	46434.5
876.552	46155.5
876.794	45715.5
877.036	45354.5
877.278	45018.5
877.52	45068.5
877.762	44728.5
878.004	44607.5
878.246	44478.5
878.488	44362.5
878.73	44464.5
878.972	44232.5
879.213	44267.5
879.455	44190.5
879.697	44082.5
879.938	43996.5
880.18	43872.5
880.421	43692.5
880.663	43808.5
880.904	43711.5
881.145	43806.5
881.387	43786.5
881.628	43844.5
881.869	43411.5
882.11	43252.5
882.352	43004.5
882.593	42895.5
882.834	42749.5
883.075	42743.5
883.316	42333.5
883.557	42161.5
883.797	41865.5
884.038	41601.5
884.279	41116.5
884.52	40668.5
884.761	40120.5
885.001	40067.5
885.242	39492.5
885.482	39305.5
885.723	39060.5
885.963	39134.5
886.204	38886.5
886.444	38524.5
886.685	38614.5
886.925	38260.5
887.165	38103.5
887.405	37862.5
887.646	37864.5
887.886	37706.5
888.126	37716.5
888.366	37659.5
888.606	37505.5
888.846	37696.5
889.086	37761.5
889.326	37624.5
889.565	37788.5
889.805	37538.5
890.045	37470.5
890.285	37389.5
890.524	37196.5
890.764	37039.5
891.003	36761.5
891.243	36279.5
891.482	36177.5
891.722	35818.5
891.961	35561.5
892.201	35393.5
892.44	35179.5
892.679	34979.5
892.918	34922.5
893.158	34698.5
893.397	34610.5
893.636	34434.5
893.875	34252.5
894.114	34183.5
894.353	34114.5
894.592	34014.5
894.831	33673.5
895.069	33618.5
895.308	33441.5
895.547	33078.5
895.786	32936.5
896.024	32966.5
896.263	32825.5
896.501	32688.5
896.74	32732.5
896.978	32663.5
897.217	32615.5
897.455	32491.5
897.694	32362.5
897.932	32257.5
898.17	32086.5
898.408	32008.5
898.646	31873.5
898.885	31688.5
899.123	31470.5
899.361	31219.5
899.599	31140.5
899.837	31001.5
900.075	30874.5
900.312	30468.5
900.55	30278.5
900.788	29873.5
901.026	29528.5
901.263	29297.5
901.501	29132.5
901.739	28916.5
901.976	28810.5
902.214	28709.5
902.451	28662.5
902.689	28479.5
902.926	28272.5
903.163	28407.5
903.401	28459.5
903.638	28365.5
903.875	28363.5
904.112	28255.5
904.349	28281.5
904.586	28234.5
904.823	28101.5
905.06	27835.5
905.297	27748.5
905.534	27387.5
905.771	27213.5
906.008	27106.5
906.245	26859.5
906.481	26677.5
906.718	26677.5
906.955	26479.5
907.191	26386.5
907.428	26207.5
907.664	26213.5
907.901	26141.5
908.137	26031.5
908.374	25858.5
908.61	25718.5
908.846	25535.5
909.083	25526.5
909.319	25331.5
909.555	25139.5
909.791	24886.5
910.027	24800.5
910.263	24441.5
910.499	24369.5
910.735	24209.5
910.971	23860.5
911.207	23820.5
911.443	23636.5
911.678	23636.5
911.914	23424.5
912.15	23504.5
912.385	23366.5
912.621	23290.5
912.857	23269.5
913.092	23264.5
913.328	23327.5
913.563	23221.5
913.798	23166.5
914.034	23100.5
914.269	23142.5
914.504	22975.5
914.739	22833.5
914.975	22689.5
915.21	22539.5
915.445	22217.5
915.68	22133.5
915.915	21905.5
916.15	21719.5
916.384	21444.5
916.619	21226.5
916.854	21173.5
917.089	20826.5
917.324	20793.5
917.558	20613.5
917.793	20471.5
918.028	20351.5
918.262	20450.5
918.497	20349.5
918.731	20269.5
918.965	20239.5
919.2	20245.5
919.434	20086.5
919.668	20046.5
919.903	20056.5
920.137	19950.5
920.371	19809.5
920.605	19786.5
920.839	19542.5
921.073	19454.5
921.307	19318.5
921.541	19148.5
921.775	19112.5
922.009	19019.5
922.243	18972.5
922.476	18933.5
922.71	18815.5
922.944	18854.5
923.177	18624.5
923.411	18762.5
923.644	18681.5
923.878	18525.5
924.111	18519.5
924.345	18421.5
924.578	18378.5
924.811	18226.5
925.045	18074.5
925.278	18025.5
925.511	17960.5
925.744	17783.5
925.977	17594.5
926.21	17447.5
926.443	17263.5
926.676	17114.5
926.909	17024.5
927.142	17003.5
927.375	16662.5
927.608	16642.5
927.841	16606.5
928.073	16428.5
928.306	16447.5
928.539	16446.5
928.771	16413.5
929.004	16368.5
929.236	16374.5
929.469	16275.5
929.701	16447.5
929.933	16353.5
930.166	16260.5
930.398	16318.5
930.63	16273.5
930.862	16170.5
931.094	16073.5
931.327	15993.5
931.559	15824.5
931.791	15768.5
932.023	15620.5
932.255	15643.5
932.486	15453.5
932.718	15263.5
932.95	15292.5
933.182	15042.5
933.413	15029.5
933.645	15010.5
933.877	14943.5
934.108	14889.5
934.34	14907.5
934.571	14755.5
934.803	14656.5
935.034	14575.5
935.265	14516.5
935.497	14463.5
935.728	14413.5
935.959	14315.5
936.19	14306.5
936.422	14095.5
936.653	14078.5
936.884	14032.5
937.115	13971.5
937.346	13739.5
937.577	13774.5
937.807	13627.5
938.038	13669.5
938.269	13480.5
938.5	13442.5
938.73	13496.5
938.961	13373.5
939.192	13436.5
939.422	13387.5
939.653	13365.5
939.883	13313.5
940.114	13254.5
940.344	13280.5
940.574	13273.5
940.805	13106.5
941.035	13057.5
941.265	12894.5
941.495	12826.5
941.726	12741.5
941.956	12696.5
942.186	12660.5
942.416	12408.5
942.646	12373.5
942.876	12216.5
943.105	12096.5
943.335	12014.5
943.565	11949.5
943.795	11764.5
944.024	11667.5
944.254	11575.5
944.484	11558.5
944.713	11477.5
944.943	11389.5
945.172	11370.5
945.402	11343.5
945.631	11335.5
945.86	11289.5
946.09	11262.5
946.319	11223.5
946.548	11226.5
946.777	11176.5
947.006	11059.5
947.235	10961.5
947.465	10987.5
947.694	10939.5
947.922	10799.5
948.151	10712.5
948.38	10659.5
948.609	10526.5
948.838	10420.5
949.067	10384.5
949.295	10374.5
949.524	10307.5
949.752	10209.5
949.981	10066.5
950.21	10042.5
950.438	10045.5
950.666	9903.5
950.895	9910.5
951.123	9737.5
951.351	9760.5
951.58	9679.5
951.808	9594.5
952.036	9571.5
952.264	9536.5
952.492	9425.5
952.72	9358.5
952.948	9338.5
953.176	9312.5
953.404	9237.5
953.632	9117.5
953.86	9056.5
954.088	8966.5
954.315	8956.5
954.543	8814.5
954.771	8823.5
954.998	8690.5
955.226	8744.5
955.453	8639.5
955.681	8592.5
955.908	8594.5
956.135	8556.5
956.363	8532.5
956.59	8498.5
956.817	8522.5
957.045	8458.5
957.272	8408.5
957.499	8432.5
957.726	8392.5
957.953	8318.5
958.18	8326.5
958.407	8210.5
958.634	8178.5
958.861	8108.5
959.087	8023.5
959.314	7961.5
959.541	7897.5
959.767	7864.5
959.994	7846.5
960.221	7771.5
960.447	7634.5
960.674	7649.5
960.9	7573.5
961.127	7506.5
961.353	7438.5
961.579	7436.5
961.806	7377.5
962.032	7304.5
962.258	7302.5
962.484	7227.5
962.71	7253.5
962.936	7172.5
963.162	7203.5
963.388	7239.5
963.614	7173.5
963.84	7111.5
964.066	7084.5
964.292	7053.5
964.518	7072.5
964.743	7046.5
964.969	6984.5
965.195	6945.5
965.42	6942.5
965.646	6863.5
965.871	6808.5
966.097	6802.5
966.322	6728.5
966.547	6711.5
966.773	6712.5
966.998	6594.5
967.223	6624.5
967.448	6536.5
967.674	6539.5
967.899	6483.5
968.124	6429.5
968.349	6430.5
968.574	6328.5
968.799	6396.5
969.024	6295.5
969.248	6282.5
969.473	6198.5
969.698	6191.5
969.923	6164.5
970.147	6150.5
970.372	6094.5
970.596	6062.5
970.821	5992.5
971.046	5975.5
971.27	5935.5
971.494	5879.5
971.719	5829.5
971.943	5800.5
972.167	5804.5
972.392	5723.5
972.616	5715.5
972.84	5677.5
973.064	5603.5
973.288	5629.5
973.512	5597.5
973.736	5562.5
973.96	5577.5
974.184	5547.5
974.408	5453.5
974.631	5523.5
974.855	5493.5
975.079	5429.5
975.303	5401.5
975.526	5373.5
975.75	5329.5
975.973	5331.5
976.197	5313.5
976.42	5252.5
976.644	5251.5
976.867	5205.5
977.09	5188.5
977.313	5110.5
977.537	5107.5
977.76	5045.5
977.983	5072.5
978.206	4963.5
978.429	4951.5
978.652	4942.5
978.875	4923.5
979.098	4855.5
979.321	4841.5
979.544	4751.5
979.767	4716.5
979.989	4725.5
980.212	4687.5
980.435	4675.5
980.657	4614.5
980.88	4666.5
981.102	4585.5
981.325	4617.5
981.547	4564.5
981.77	4538.5
981.992	4477.5
982.214	4516.5
982.437	4435.5
982.659	4453.5
982.881	4429.5
983.103	4448.5
983.325	4369.5
983.547	4395.5
983.769	4388.5
983.991	4315.5
984.213	4299.5
984.435	4303.5
984.657	4255.5
984.879	4243.5
985.1	4270.5
985.322	4198.5
985.544	4177.5
985.765	4149.5
985.987	4119.5
986.208	4112.5
986.43	4067.5
986.651	4074.5
986.873	4072.5
987.094	4044.5
987.315	3948.5
987.536	3905.5
987.758	3984.5
987.979	3911.5
988.2	3907.5
988.421	3854.5
988.642	3889.5
988.863	3825.5
989.084	3796.5
989.305	3763.5
989.526	3761.5
989.747	3691.5
989.967	3704.5
990.188	3699.5
990.409	3627.5
990.629	3633.5
990.85	3619.5
991.071	3547.5
991.291	3582.5
991.512	3533.5
991.732	3524.5
991.952	3541.5
992.173	3471.5
992.393	3512.5
992.613	3437.5
992.834	3515.5
993.054	3480.5
993.274	3467.5
993.494	3420.5
993.714	3426.5
993.934	3430.5
994.154	3405.5
994.374	3388.5
994.594	3354.5
994.813	3368.5
995.033	3340.5
995.253	3315.5
995.473	3308.5
995.692	3277.5
995.912	3271.5
996.131	3278.5
996.351	3203.5
996.57	3202.5
996.79	3125.5
997.009	3143.5
997.228	3163.5
997.448	3081.5
997.667	3050.5
997.886	3041.5
998.105	2982.5
998.325	2998.5
998.544	2965.5
998.763	2955.5
998.982	2953.5
999.201	2927.5
999.419	2899.5
999.638	2847.5
999.857	2831.5
1000.076	2886.5
1000.295	2808.5
1000.513	2842.5
1000.732	2807.5
1000.95	2807.5
1001.169	2829.5
1001.388	2798.5
1001.606	2788.5
1001.824	2766.5
1002.043	2736.5
1002.261	2736.5
1002.479	2735.5
1002.698	2741.5
1002.916	2694.5
1003.134	2688.5
1003.352	2674.5
1003.57	2655.5
1003.788	2698.5
1004.006	2663.5
1004.224	2676.5
1004.442	2631.5
1004.66	2653.5
1004.878	2591.5
1005.095	2592.5
1005.313	2633.5
1005.531	2595.5
1005.748	2561.5
1005.966	2687.5
1006.184	2556.5
1006.401	2565.5
1006.618	2532.5
1006.836	2552.5
1007.053	2530.5
1007.271	2530.5
1007.488	2542.5
1007.705	2558.5
1007.922	2560.5
1008.139	2549.5
1008.357	2578.5
1008.574	2563.5
1008.791	2604.5
1009.008	2640.5
1009.225	2667.5
1009.441	2707.5
1009.658	2713.5
1009.875	2735.5
1010.092	2659.5
1010.309	2694.5
1010.525	2661.5
1010.742	2633.5
1010.958	2593.5
1011.175	2599.5
1011.391	2547.5
1011.608	2535.5
1011.824	2493.5
1012.041	2455.5
1012.257	2469.5
1012.473	2441.5
1012.689	2430.5
1012.906	2418.5
1013.122	2412.5
1013.338	2379.5
1013.554	2397.5
1013.77	2422.5
1013.986	2446.5
1014.202	2469.5
1014.418	2532.5
1014.634	2582.5
1014.849	2612.5
1015.065	2656.5
1015.281	2681.5
1015.496	2682.5
1015.712	2615.5
1015.928	2532.5
1016.143	2514.5
1016.359	2447.5
1016.574	2392.5
1016.79	2365.5
1017.005	2308.5
1017.22	2230.5
1017.435	2172.5
1017.651	2157.5
1017.866	2121.5
1018.081	2038.5
1018.296	1999.5
1018.511	2023.5
1018.726	2024.5
1018.941	1974.5
1019.156	1952.5
1019.371	1944.5
1019.586	1994.5
1019.801	1964.5
1020.015	1920.5
1020.23	1888.5
1020.445	1918.5
1020.659	1872.5
1020.874	1838.5
1021.088	1809.5
1021.303	1765.5
1021.517	1735.5
1021.732	1739.5
1021.946	1702.5
1022.16	1693.5
1022.375	1665.5
1022.589	1609.5
1022.803	1576.5
1023.017	1543.5
1023.231	1511.5
1023.445	1526.5
1023.659	1486.5
1023.873	1452.5
1024.087	1412.5
1024.301	1389.5
1024.515	1360.5
1024.729	1367.5
1024.942	1313.5
1025.156	1293.5
1025.37	1303.5
1025.583	1281.5
1025.797	1235.5
1026.01	1221.5
1026.224	1156.5
1026.437	1172.5
1026.651	1108.5
1026.864	1046.5
1027.077	1084.5
1027.291	1052.5
1027.504	1042.5
1027.717	990.5
1027.93	971.5
1028.143	937.5
1028.356	921.5
1028.569	865.5
1028.782	819.5
1028.995	-0.5
1029.208	1.5
1029.421	1.5
1029.634	-4.5
