Data from QEP037381__462__15-56-11-575.txt Node

Date: Mon Mar 14 15:56:11 EDT 2022
User: dcclab
Spectrometer: QEP03738
Trigger mode: 4
Integration Time (sec): 2.500000E0
Scans to average: 1
Electric dark correction enabled: true
Nonlinearity correction enabled: false
Boxcar width: 0
XAxis mode: Wavelengths
Number of Pixels in Spectrum: 1044
>>>>>Begin Spectral Data<<<<<
783.959	13.25
784.218	0.25
784.476	-4.75
784.734	-2.75
784.992	239.25
785.251	223.25
785.509	229.25
785.767	228.25
786.025	210.25
786.283	216.25
786.541	216.25
786.798	229.25
787.056	221.25
787.314	202.25
787.572	217.25
787.83	214.25
788.087	222.25
788.345	222.25
788.602	223.25
788.86	217.25
789.117	219.25
789.375	208.25
789.632	217.25
789.89	216.25
790.147	230.25
790.404	231.25
790.661	225.25
790.919	239.25
791.176	236.25
791.433	233.25
791.69	244.25
791.947	252.25
792.204	233.25
792.461	260.25
792.718	259.25
792.974	255.25
793.231	265.25
793.488	288.25
793.745	279.25
794.001	300.25
794.258	303.25
794.514	313.25
794.771	339.25
795.027	344.25
795.284	362.25
795.54	378.25
795.797	405.25
796.053	449.25
796.309	465.25
796.565	521.25
796.822	549.25
797.078	631.25
797.334	741.25
797.59	851.25
797.846	1082.25
798.102	1372.25
798.358	1831.25
798.614	2587.25
798.869	3781.25
799.125	5536.25
799.381	8077.25
799.637	11578.25
799.892	15628.25
800.148	20104.25
800.403	24392.25
800.659	28071.25
800.914	31072.25
801.17	33098.25
801.425	34563.25
801.68	35450.25
801.936	36270.25
802.191	37000.25
802.446	37753.25
802.701	38686.25
802.957	39482.25
803.212	40351.25
803.467	41054.25
803.722	41765.25
803.977	42653.25
804.232	43380.25
804.486	44453.25
804.741	45212.25
804.996	46252.25
805.251	46898.25
805.505	47693.25
805.76	48641.25
806.015	49367.25
806.269	50011.25
806.524	50631.25
806.778	50971.25
807.033	51627.25
807.287	52203.25
807.541	52959.25
807.796	53771.25
808.05	54358.25
808.304	54621.25
808.558	55134.25
808.812	55510.25
809.066	56064.25
809.32	56453.25
809.574	56608.25
809.828	57264.25
810.082	57563.25
810.336	58007.25
810.59	58543.25
810.844	59066.25
811.097	60044.25
811.351	60934.25
811.605	61790.25
811.858	62764.25
812.112	63835.25
812.365	64890.25
812.619	65858.25
812.872	66921.25
813.126	67833.25
813.379	68604.25
813.632	69721.25
813.885	70508.25
814.139	71624.25
814.392	72795.25
814.645	74009.25
814.898	75448.25
815.151	76743.25
815.404	78195.25
815.657	79439.25
815.91	80609.25
816.163	81870.25
816.416	82530.25
816.668	82885.25
816.921	83337.25
817.174	83667.25
817.426	83717.25
817.679	83667.25
817.931	83881.25
818.184	83849.25
818.436	83776.25
818.689	84181.25
818.941	84205.25
819.194	84431.25
819.446	84715.25
819.698	85269.25
819.95	85680.25
820.202	85962.25
820.455	86326.25
820.707	86550.25
820.959	86365.25
821.211	86511.25
821.462	86474.25
821.714	86393.25
821.966	85946.25
822.218	85458.25
822.47	85208.25
822.722	84745.25
822.973	84594.25
823.225	84249.25
823.476	84094.25
823.728	84161.25
823.979	84338.25
824.231	84442.25
824.482	84425.25
824.734	84441.25
824.985	84444.25
825.236	84302.25
825.487	84239.25
825.739	83608.25
825.99	83464.25
826.241	83226.25
826.492	82617.25
826.743	82465.25
826.994	82084.25
827.245	81810.25
827.496	81969.25
827.747	81396.25
827.997	81568.25
828.248	81702.25
828.499	81600.25
828.75	81584.25
829	81636.25
829.251	81662.25
829.501	81258.25
829.752	81077.25
830.002	80673.25
830.253	80363.25
830.503	79903.25
830.753	79462.25
831.004	78888.25
831.254	78571.25
831.504	78527.25
831.754	78205.25
832.004	78044.25
832.254	78087.25
832.504	78596.25
832.754	78559.25
833.004	78193.25
833.254	77973.25
833.504	77877.25
833.754	77838.25
834.003	77615.25
834.253	77288.25
834.503	76920.25
834.752	76155.25
835.002	75899.25
835.252	75604.25
835.501	75306.25
835.75	75104.25
836	74790.25
836.249	75014.25
836.499	74811.25
836.748	74865.25
836.997	74746.25
837.246	75019.25
837.495	75228.25
837.744	76209.25
837.993	76787.25
838.242	77166.25
838.491	77141.25
838.74	75939.25
838.989	74633.25
839.238	73955.25
839.487	73258.25
839.736	72618.25
839.984	72331.25
840.233	71878.25
840.482	71510.25
840.73	71481.25
840.979	71187.25
841.227	70783.25
841.476	70521.25
841.724	70260.25
841.972	70324.25
842.221	69983.25
842.469	69598.25
842.717	69437.25
842.965	69187.25
843.213	69153.25
843.461	68721.25
843.71	68428.25
843.958	68295.25
844.205	68120.25
844.453	67945.25
844.701	67774.25
844.949	67890.25
845.197	67716.25
845.445	67854.25
845.692	67908.25
845.94	68108.25
846.188	67879.25
846.435	67582.25
846.683	67517.25
846.93	67443.25
847.178	66800.25
847.425	66277.25
847.672	65796.25
847.92	65269.25
848.167	64688.25
848.414	64287.25
848.661	63882.25
848.908	63670.25
849.155	63518.25
849.402	63334.25
849.649	63444.25
849.896	63917.25
850.143	64221.25
850.39	64574.25
850.637	64515.25
850.884	64400.25
851.131	64134.25
851.377	63986.25
851.624	63660.25
851.87	63443.25
852.117	62983.25
852.364	62821.25
852.61	62635.25
852.856	62541.25
853.103	62121.25
853.349	62031.25
853.595	61744.25
853.842	61474.25
854.088	61222.25
854.334	60903.25
854.58	60964.25
854.826	60727.25
855.072	60136.25
855.318	59746.25
855.564	59021.25
855.81	58774.25
856.056	58372.25
856.302	57754.25
856.548	57313.25
856.793	57089.25
857.039	56755.25
857.285	56567.25
857.53	56514.25
857.776	56571.25
858.021	56689.25
858.267	57012.25
858.512	57088.25
858.758	57231.25
859.003	57316.25
859.248	57045.25
859.493	57141.25
859.739	56965.25
859.984	56770.25
860.229	56239.25
860.474	56035.25
860.719	55772.25
860.964	55549.25
861.209	55050.25
861.454	54752.25
861.699	54078.25
861.943	54050.25
862.188	53957.25
862.433	53752.25
862.678	53354.25
862.922	53376.25
863.167	53235.25
863.411	53047.25
863.656	52765.25
863.9	52774.25
864.145	52338.25
864.389	52272.25
864.634	52016.25
864.878	51863.25
865.122	51550.25
865.366	51413.25
865.61	51361.25
865.855	51378.25
866.099	51072.25
866.343	51043.25
866.587	51021.25
866.831	50818.25
867.074	50917.25
867.318	50814.25
867.562	50768.25
867.806	50989.25
868.05	50802.25
868.293	50630.25
868.537	50474.25
868.78	50302.25
869.024	50075.25
869.267	49522.25
869.511	49195.25
869.754	48801.25
869.998	48299.25
870.241	47957.25
870.484	47720.25
870.728	47313.25
870.971	47043.25
871.214	46752.25
871.457	46701.25
871.7	46816.25
871.943	46920.25
872.186	46650.25
872.429	46853.25
872.672	46792.25
872.915	46470.25
873.158	46661.25
873.4	46497.25
873.643	46334.25
873.886	46279.25
874.128	45988.25
874.371	45841.25
874.613	45758.25
874.856	45691.25
875.098	45326.25
875.341	45372.25
875.583	45252.25
875.825	44975.25
876.068	44758.25
876.31	44619.25
876.552	44080.25
876.794	43777.25
877.036	43337.25
877.278	43037.25
877.52	43093.25
877.762	42766.25
878.004	42731.25
878.246	42482.25
878.488	42480.25
878.73	42437.25
878.972	42274.25
879.213	42157.25
879.455	42234.25
879.697	42007.25
879.938	41966.25
880.18	41894.25
880.421	41809.25
880.663	41898.25
880.904	41898.25
881.145	41943.25
881.387	42153.25
881.628	41919.25
881.869	41757.25
882.11	41338.25
882.352	41115.25
882.593	41142.25
882.834	40929.25
883.075	40749.25
883.316	40506.25
883.557	40219.25
883.797	40049.25
884.038	39931.25
884.279	39419.25
884.52	38827.25
884.761	38544.25
885.001	38075.25
885.242	37862.25
885.482	37627.25
885.723	37423.25
885.963	37251.25
886.204	37235.25
886.444	36949.25
886.685	36893.25
886.925	36611.25
887.165	36506.25
887.405	36369.25
887.646	36318.25
887.886	36062.25
888.126	36029.25
888.366	36058.25
888.606	36004.25
888.846	35953.25
889.086	36166.25
889.326	36103.25
889.565	36167.25
889.805	36031.25
890.045	35908.25
890.285	35709.25
890.524	35691.25
890.764	35472.25
891.003	35286.25
891.243	34822.25
891.482	34501.25
891.722	34274.25
891.961	34049.25
892.201	33820.25
892.44	33632.25
892.679	33506.25
892.918	33328.25
893.158	33220.25
893.397	33174.25
893.636	33002.25
893.875	32882.25
894.114	32756.25
894.353	32673.25
894.592	32524.25
894.831	32267.25
895.069	32220.25
895.308	31911.25
895.547	31894.25
895.786	31637.25
896.024	31441.25
896.263	31464.25
896.501	31389.25
896.74	31424.25
896.978	31305.25
897.217	31137.25
897.455	31083.25
897.694	30911.25
897.932	30783.25
898.17	30742.25
898.408	30670.25
898.646	30485.25
898.885	30380.25
899.123	30281.25
899.361	29946.25
899.599	29704.25
899.837	29674.25
900.075	29510.25
900.312	29288.25
900.55	28947.25
900.788	28621.25
901.026	28436.25
901.263	28161.25
901.501	27987.25
901.739	27753.25
901.976	27620.25
902.214	27634.25
902.451	27411.25
902.689	27344.25
902.926	27283.25
903.163	27111.25
903.401	27078.25
903.638	27217.25
903.875	27180.25
904.112	27175.25
904.349	27113.25
904.586	26928.25
904.823	26895.25
905.06	26686.25
905.297	26555.25
905.534	26421.25
905.771	26082.25
906.008	25845.25
906.245	25841.25
906.481	25648.25
906.718	25498.25
906.955	25439.25
907.191	25281.25
907.428	25170.25
907.664	25012.25
907.901	24949.25
908.137	24918.25
908.374	24821.25
908.61	24797.25
908.846	24577.25
909.083	24394.25
909.319	24256.25
909.555	24184.25
909.791	23940.25
910.027	23768.25
910.263	23545.25
910.499	23218.25
910.735	23110.25
910.971	22986.25
911.207	22838.25
911.443	22621.25
911.678	22556.25
911.914	22517.25
912.15	22471.25
912.385	22434.25
912.621	22362.25
912.857	22405.25
913.092	22523.25
913.328	22341.25
913.563	22239.25
913.798	22256.25
914.034	22110.25
914.269	22012.25
914.504	22012.25
914.739	22062.25
914.975	21737.25
915.21	21633.25
915.445	21392.25
915.68	21313.25
915.915	21085.25
916.15	20828.25
916.384	20687.25
916.619	20368.25
916.854	20173.25
917.089	20077.25
917.324	19925.25
917.558	19838.25
917.793	19634.25
918.028	19593.25
918.262	19644.25
918.497	19489.25
918.731	19415.25
918.965	19387.25
919.2	19494.25
919.434	19323.25
919.668	19282.25
919.903	19185.25
920.137	19158.25
920.371	19060.25
920.605	18921.25
920.839	18807.25
921.073	18658.25
921.307	18577.25
921.541	18311.25
921.775	18264.25
922.009	18196.25
922.243	18223.25
922.476	18135.25
922.71	18022.25
922.944	18007.25
923.177	18057.25
923.411	18088.25
923.644	17954.25
923.878	17856.25
924.111	17793.25
924.345	17693.25
924.578	17634.25
924.811	17459.25
925.045	17392.25
925.278	17289.25
925.511	17215.25
925.744	17015.25
925.977	16834.25
926.21	16689.25
926.443	16609.25
926.676	16458.25
926.909	16364.25
927.142	16252.25
927.375	16066.25
927.608	15971.25
927.841	15898.25
928.073	15839.25
928.306	15849.25
928.539	15759.25
928.771	15795.25
929.004	15682.25
929.236	15749.25
929.469	15694.25
929.701	15677.25
929.933	15782.25
930.166	15726.25
930.398	15628.25
930.63	15584.25
930.862	15573.25
931.094	15462.25
931.327	15401.25
931.559	15312.25
931.791	15207.25
932.023	15058.25
932.255	15000.25
932.486	14781.25
932.718	14732.25
932.95	14657.25
933.182	14558.25
933.413	14479.25
933.645	14447.25
933.877	14343.25
934.108	14222.25
934.34	14184.25
934.571	14124.25
934.803	14077.25
935.034	14004.25
935.265	13943.25
935.497	13952.25
935.728	13838.25
935.959	13752.25
936.19	13789.25
936.422	13598.25
936.653	13523.25
936.884	13444.25
937.115	13397.25
937.346	13378.25
937.577	13226.25
937.807	13104.25
938.038	13123.25
938.269	13031.25
938.5	12919.25
938.73	12954.25
938.961	12955.25
939.192	12884.25
939.422	12889.25
939.653	12906.25
939.883	12828.25
940.114	12786.25
940.344	12635.25
940.574	12705.25
940.805	12612.25
941.035	12535.25
941.265	12457.25
941.495	12352.25
941.726	12275.25
941.956	12128.25
942.186	12113.25
942.416	11988.25
942.646	11787.25
942.876	11745.25
943.105	11678.25
943.335	11522.25
943.565	11524.25
943.795	11367.25
944.024	11205.25
944.254	11221.25
944.484	11094.25
944.713	11006.25
944.943	10980.25
945.172	10969.25
945.402	10908.25
945.631	10894.25
945.86	10876.25
946.09	10831.25
946.319	10795.25
946.548	10806.25
946.777	10690.25
947.006	10677.25
947.235	10639.25
947.465	10540.25
947.694	10497.25
947.922	10396.25
948.151	10328.25
948.38	10247.25
948.609	10215.25
948.838	10089.25
949.067	10015.25
949.295	9967.25
949.524	9883.25
949.752	9822.25
949.981	9688.25
950.21	9695.25
950.438	9591.25
950.666	9560.25
950.895	9494.25
951.123	9404.25
951.351	9389.25
951.58	9296.25
951.808	9258.25
952.036	9209.25
952.264	9144.25
952.492	9110.25
952.72	9110.25
952.948	9058.25
953.176	8961.25
953.404	8901.25
953.632	8775.25
953.86	8678.25
954.088	8647.25
954.315	8621.25
954.543	8532.25
954.771	8464.25
954.998	8395.25
955.226	8385.25
955.453	8397.25
955.681	8289.25
955.908	8331.25
956.135	8280.25
956.363	8228.25
956.59	8237.25
956.817	8160.25
957.045	8063.25
957.272	8145.25
957.499	8154.25
957.726	8105.25
957.953	8003.25
958.18	7924.25
958.407	7875.25
958.634	7904.25
958.861	7768.25
959.087	7796.25
959.314	7706.25
959.541	7645.25
959.767	7587.25
959.994	7584.25
960.221	7487.25
960.447	7398.25
960.674	7344.25
960.9	7243.25
961.127	7268.25
961.353	7212.25
961.579	7158.25
961.806	7114.25
962.032	7098.25
962.258	7064.25
962.484	6982.25
962.71	6935.25
962.936	6995.25
963.162	6939.25
963.388	6976.25
963.614	6908.25
963.84	6807.25
964.066	6870.25
964.292	6901.25
964.518	6809.25
964.743	6753.25
964.969	6765.25
965.195	6725.25
965.42	6689.25
965.646	6691.25
965.871	6637.25
966.097	6574.25
966.322	6513.25
966.547	6498.25
966.773	6418.25
966.998	6376.25
967.223	6367.25
967.448	6340.25
967.674	6286.25
967.899	6199.25
968.124	6284.25
968.349	6178.25
968.574	6201.25
968.799	6107.25
969.024	6062.25
969.248	6029.25
969.473	5999.25
969.698	5954.25
969.923	5912.25
970.147	5870.25
970.372	5846.25
970.596	5858.25
970.821	5780.25
971.046	5776.25
971.27	5676.25
971.494	5675.25
971.719	5675.25
971.943	5619.25
972.167	5604.25
972.392	5546.25
972.616	5489.25
972.84	5460.25
973.064	5428.25
973.288	5375.25
973.512	5317.25
973.736	5331.25
973.96	5359.25
974.184	5310.25
974.408	5312.25
974.631	5281.25
974.855	5252.25
975.079	5221.25
975.303	5252.25
975.526	5170.25
975.75	5183.25
975.973	5161.25
976.197	5098.25
976.42	5054.25
976.644	5047.25
976.867	5007.25
977.09	4990.25
977.313	4950.25
977.537	4978.25
977.76	4861.25
977.983	4863.25
978.206	4796.25
978.429	4825.25
978.652	4736.25
978.875	4733.25
979.098	4683.25
979.321	4694.25
979.544	4627.25
979.767	4638.25
979.989	4592.25
980.212	4600.25
980.435	4487.25
980.657	4466.25
980.88	4464.25
981.102	4466.25
981.325	4434.25
981.547	4394.25
981.77	4354.25
981.992	4359.25
982.214	4347.25
982.437	4336.25
982.659	4282.25
982.881	4291.25
983.103	4277.25
983.325	4251.25
983.547	4209.25
983.769	4162.25
983.991	4167.25
984.213	4141.25
984.435	4179.25
984.657	4089.25
984.879	4104.25
985.1	4068.25
985.322	4069.25
985.544	4027.25
985.765	4022.25
985.987	3950.25
986.208	3960.25
986.43	3941.25
986.651	3939.25
986.873	3909.25
987.094	3871.25
987.315	3848.25
987.536	3850.25
987.758	3854.25
987.979	3803.25
988.2	3768.25
988.421	3755.25
988.642	3755.25
988.863	3684.25
989.084	3700.25
989.305	3663.25
989.526	3641.25
989.747	3643.25
989.967	3588.25
990.188	3569.25
990.409	3561.25
990.629	3523.25
990.85	3521.25
991.071	3467.25
991.291	3452.25
991.512	3379.25
991.732	3411.25
991.952	3421.25
992.173	3360.25
992.393	3360.25
992.613	3338.25
992.834	3396.25
993.054	3338.25
993.274	3355.25
993.494	3305.25
993.714	3349.25
993.934	3320.25
994.154	3287.25
994.374	3317.25
994.594	3238.25
994.813	3252.25
995.033	3239.25
995.253	3234.25
995.473	3239.25
995.692	3185.25
995.912	3139.25
996.131	3172.25
996.351	3139.25
996.57	3125.25
996.79	3068.25
997.009	3038.25
997.228	3020.25
997.448	3022.25
997.667	2940.25
997.886	2966.25
998.105	2890.25
998.325	2892.25
998.544	2869.25
998.763	2854.25
998.982	2844.25
999.201	2808.25
999.419	2796.25
999.638	2754.25
999.857	2778.25
1000.076	2787.25
1000.295	2744.25
1000.513	2744.25
1000.732	2687.25
1000.95	2690.25
1001.169	2721.25
1001.388	2699.25
1001.606	2680.25
1001.824	2691.25
1002.043	2666.25
1002.261	2667.25
1002.479	2662.25
1002.698	2661.25
1002.916	2623.25
1003.134	2612.25
1003.352	2612.25
1003.57	2613.25
1003.788	2597.25
1004.006	2614.25
1004.224	2565.25
1004.442	2555.25
1004.66	2562.25
1004.878	2542.25
1005.095	2511.25
1005.313	2549.25
1005.531	2547.25
1005.748	2483.25
1005.966	2622.25
1006.184	2511.25
1006.401	2492.25
1006.618	2482.25
1006.836	2465.25
1007.053	2475.25
1007.271	2467.25
1007.488	2476.25
1007.705	2486.25
1007.922	2486.25
1008.139	2453.25
1008.357	2480.25
1008.574	2503.25
1008.791	2534.25
1009.008	2595.25
1009.225	2603.25
1009.441	2612.25
1009.658	2620.25
1009.875	2633.25
1010.092	2653.25
1010.309	2623.25
1010.525	2582.25
1010.742	2582.25
1010.958	2516.25
1011.175	2496.25
1011.391	2457.25
1011.608	2505.25
1011.824	2449.25
1012.041	2437.25
1012.257	2395.25
1012.473	2418.25
1012.689	2364.25
1012.906	2344.25
1013.122	2351.25
1013.338	2356.25
1013.554	2378.25
1013.77	2359.25
1013.986	2334.25
1014.202	2411.25
1014.418	2484.25
1014.634	2562.25
1014.849	2551.25
1015.065	2588.25
1015.281	2595.25
1015.496	2598.25
1015.712	2558.25
1015.928	2507.25
1016.143	2440.25
1016.359	2404.25
1016.574	2366.25
1016.79	2294.25
1017.005	2243.25
1017.22	2183.25
1017.435	2160.25
1017.651	2095.25
1017.866	2091.25
1018.081	2038.25
1018.296	1991.25
1018.511	1975.25
1018.726	1958.25
1018.941	1927.25
1019.156	1886.25
1019.371	1929.25
1019.586	1928.25
1019.801	1898.25
1020.015	1896.25
1020.23	1895.25
1020.445	1866.25
1020.659	1843.25
1020.874	1818.25
1021.088	1772.25
1021.303	1719.25
1021.517	1707.25
1021.732	1679.25
1021.946	1659.25
1022.16	1643.25
1022.375	1602.25
1022.589	1556.25
1022.803	1559.25
1023.017	1492.25
1023.231	1481.25
1023.445	1487.25
1023.659	1427.25
1023.873	1393.25
1024.087	1368.25
1024.301	1364.25
1024.515	1342.25
1024.729	1331.25
1024.942	1279.25
1025.156	1297.25
1025.37	1235.25
1025.583	1214.25
1025.797	1200.25
1026.01	1190.25
1026.224	1149.25
1026.437	1122.25
1026.651	1073.25
1026.864	1024.25
1027.077	1043.25
1027.291	1017.25
1027.504	1001.25
1027.717	966.25
1027.93	946.25
1028.143	895.25
1028.356	880.25
1028.569	841.25
1028.782	792.25
1028.995	-0.75
1029.208	-2.75
1029.421	-0.75
1029.634	-1.75
