Data from QEP037381__446__15-55-24-074.txt Node

Date: Mon Mar 14 15:55:24 EDT 2022
User: dcclab
Spectrometer: QEP03738
Trigger mode: 4
Integration Time (sec): 2.500000E0
Scans to average: 1
Electric dark correction enabled: true
Nonlinearity correction enabled: false
Boxcar width: 0
XAxis mode: Wavelengths
Number of Pixels in Spectrum: 1044
>>>>>Begin Spectral Data<<<<<
783.959	8.88
784.218	2.88
784.476	-2.12
784.734	-2.12
784.992	250.88
785.251	250.88
785.509	232.88
785.767	250.88
786.025	228.88
786.283	242.88
786.541	247.88
786.798	239.88
787.056	235.88
787.314	221.88
787.572	236.88
787.83	242.88
788.087	239.88
788.345	235.88
788.602	233.88
788.86	245.88
789.117	238.88
789.375	230.88
789.632	245.88
789.89	241.88
790.147	248.88
790.404	256.88
790.661	260.88
790.919	271.88
791.176	265.88
791.433	262.88
791.69	279.88
791.947	279.88
792.204	269.88
792.461	287.88
792.718	301.88
792.974	305.88
793.231	294.88
793.488	329.88
793.745	316.88
794.001	344.88
794.258	370.88
794.514	352.88
794.771	391.88
795.027	391.88
795.284	414.88
795.54	450.88
795.797	478.88
796.053	522.88
796.309	554.88
796.565	598.88
796.822	658.88
797.078	753.88
797.334	860.88
797.59	1027.88
797.846	1252.88
798.102	1627.88
798.358	2201.88
798.614	3120.88
798.869	4555.88
799.125	6716.88
799.381	9803.88
799.637	13845.88
799.892	18862.88
800.148	24370.88
800.403	29710.88
800.659	34273.88
800.914	37764.88
801.17	40165.88
801.425	41855.88
801.68	42864.88
801.936	44019.88
802.191	44941.88
802.446	46065.88
802.701	46948.88
802.957	47860.88
803.212	48892.88
803.467	50042.88
803.722	50926.88
803.977	51940.88
804.232	52874.88
804.486	53927.88
804.741	55033.88
804.996	56096.88
805.251	57230.88
805.505	57929.88
805.76	58871.88
806.015	59846.88
806.269	60471.88
806.524	61422.88
806.778	61814.88
807.033	62612.88
807.287	63158.88
807.541	64182.88
807.796	65067.88
808.05	65876.88
808.304	66382.88
808.558	66998.88
808.812	67400.88
809.066	67958.88
809.32	68404.88
809.574	68988.88
809.828	69284.88
810.082	69476.88
810.336	70347.88
810.59	70958.88
810.844	71702.88
811.097	72702.88
811.351	73968.88
811.605	74843.88
811.858	76108.88
812.112	77169.88
812.365	78473.88
812.619	79658.88
812.872	80871.88
813.126	81851.88
813.379	83328.88
813.632	84220.88
813.885	85382.88
814.139	86579.88
814.392	88083.88
814.645	89380.88
814.898	90999.88
815.151	92682.88
815.404	94211.88
815.657	96016.88
815.91	97360.88
816.163	98819.88
816.416	99614.88
816.668	100567.88
816.921	100766.88
817.174	101050.88
817.426	101104.88
817.679	101230.88
817.931	100970.88
818.184	100724.88
818.436	101207.88
818.689	101268.88
818.941	101552.88
819.194	102109.88
819.446	101958.88
819.698	102577.88
819.95	102983.88
820.202	103420.88
820.455	103723.88
820.707	104375.88
820.959	104133.88
821.211	103901.88
821.462	104036.88
821.714	103931.88
821.966	103455.88
822.218	102831.88
822.47	102295.88
822.722	102073.88
822.973	101736.88
823.225	101412.88
823.476	101054.88
823.728	101284.88
823.979	101520.88
824.231	101159.88
824.482	101256.88
824.734	101126.88
824.985	101274.88
825.236	100955.88
825.487	101077.88
825.739	100328.88
825.99	100266.88
826.241	99531.88
826.492	99221.88
826.743	98799.88
826.994	98445.88
827.245	98068.88
827.496	97664.88
827.747	97680.88
827.997	97497.88
828.248	97702.88
828.499	97480.88
828.75	97659.88
829	97692.88
829.251	97591.88
829.501	97462.88
829.752	96812.88
830.002	96505.88
830.253	95919.88
830.503	95539.88
830.753	94765.88
831.004	94317.88
831.254	93963.88
831.504	93715.88
831.754	93492.88
832.004	93252.88
832.254	93320.88
832.504	93486.88
832.754	93671.88
833.004	93458.88
833.254	93055.88
833.504	92867.88
833.754	92654.88
834.003	92489.88
834.253	92143.88
834.503	91550.88
834.752	91044.88
835.002	90235.88
835.252	90251.88
835.501	89706.88
835.75	89178.88
836	89092.88
836.249	89119.88
836.499	88993.88
836.748	89025.88
836.997	88889.88
837.246	89146.88
837.495	89488.88
837.744	90014.88
837.993	90834.88
838.242	91179.88
838.491	91080.88
838.74	89838.88
838.989	88379.88
839.238	87677.88
839.487	86782.88
839.736	86087.88
839.984	85472.88
840.233	85355.88
840.482	84745.88
840.73	84395.88
840.979	84310.88
841.227	84072.88
841.476	83688.88
841.724	83300.88
841.972	83269.88
842.221	83007.88
842.469	82679.88
842.717	82205.88
842.965	82109.88
843.213	81711.88
843.461	81587.88
843.71	81180.88
843.958	80836.88
844.205	80676.88
844.453	80557.88
844.701	80383.88
844.949	80401.88
845.197	80170.88
845.445	80340.88
845.692	80264.88
845.94	80393.88
846.188	80342.88
846.435	79919.88
846.683	79822.88
846.93	79438.88
847.178	79177.88
847.425	78520.88
847.672	77720.88
847.92	77146.88
848.167	76396.88
848.414	76117.88
848.661	75473.88
848.908	75021.88
849.155	74739.88
849.402	74701.88
849.649	74663.88
849.896	74931.88
850.143	75462.88
850.39	75796.88
850.637	75992.88
850.884	75788.88
851.131	75646.88
851.377	75256.88
851.624	75204.88
851.87	74687.88
852.117	74523.88
852.364	73845.88
852.61	73573.88
852.856	73327.88
853.103	73080.88
853.349	72878.88
853.595	72633.88
853.842	72039.88
854.088	71730.88
854.334	71935.88
854.58	71601.88
854.826	71163.88
855.072	70786.88
855.318	70221.88
855.564	69430.88
855.81	69015.88
856.056	68484.88
856.302	67818.88
856.548	67205.88
856.793	66893.88
857.039	66610.88
857.285	66440.88
857.53	66380.88
857.776	66449.88
858.021	66618.88
858.267	66687.88
858.512	67072.88
858.758	67034.88
859.003	67244.88
859.248	67187.88
859.493	67379.88
859.739	66685.88
859.984	66556.88
860.229	66030.88
860.474	65713.88
860.719	65297.88
860.964	65048.88
861.209	64626.88
861.454	64040.88
861.699	63508.88
861.943	63421.88
862.188	63207.88
862.433	62832.88
862.678	62546.88
862.922	62415.88
863.167	62243.88
863.411	62168.88
863.656	61982.88
863.9	61824.88
864.145	61319.88
864.389	61159.88
864.634	60913.88
864.878	60730.88
865.122	60486.88
865.366	60017.88
865.61	59870.88
865.855	59922.88
866.099	59939.88
866.343	59728.88
866.587	59499.88
866.831	59397.88
867.074	59534.88
867.318	59375.88
867.562	59694.88
867.806	59410.88
868.05	59321.88
868.293	59018.88
868.537	58811.88
868.78	58724.88
869.024	58235.88
869.267	57669.88
869.511	57406.88
869.754	57077.88
869.998	56291.88
870.241	55794.88
870.484	55621.88
870.728	55393.88
870.971	54918.88
871.214	54701.88
871.457	54485.88
871.7	54681.88
871.943	54589.88
872.186	54544.88
872.429	54514.88
872.672	54504.88
872.915	54365.88
873.158	54339.88
873.4	54352.88
873.643	54054.88
873.886	53805.88
874.128	53747.88
874.371	53540.88
874.613	53485.88
874.856	53054.88
875.098	53000.88
875.341	52831.88
875.583	52853.88
875.825	52550.88
876.068	52264.88
876.31	51843.88
876.552	51414.88
876.794	50922.88
877.036	50625.88
877.278	50215.88
877.52	50032.88
877.762	49692.88
878.004	49728.88
878.246	49609.88
878.488	49483.88
878.73	49369.88
878.972	49298.88
879.213	49247.88
879.455	49154.88
879.697	49108.88
879.938	48781.88
880.18	48839.88
880.421	48536.88
880.663	48549.88
880.904	48397.88
881.145	48747.88
881.387	48677.88
881.628	48598.88
881.869	48190.88
882.11	48043.88
882.352	47722.88
882.593	47840.88
882.834	47661.88
883.075	47352.88
883.316	47083.88
883.557	46981.88
883.797	46606.88
884.038	46271.88
884.279	45865.88
884.52	45283.88
884.761	44647.88
885.001	44412.88
885.242	43915.88
885.482	43648.88
885.723	43527.88
885.963	43316.88
886.204	43069.88
886.444	42941.88
886.685	42901.88
886.925	42517.88
887.165	42393.88
887.405	42156.88
887.646	42275.88
887.886	42005.88
888.126	41747.88
888.366	41876.88
888.606	41889.88
888.846	41922.88
889.086	41966.88
889.326	42092.88
889.565	42050.88
889.805	41907.88
890.045	41632.88
890.285	41565.88
890.524	41453.88
890.764	41185.88
891.003	40849.88
891.243	40398.88
891.482	40169.88
891.722	39813.88
891.961	39505.88
892.201	39199.88
892.44	39050.88
892.679	38769.88
892.918	38637.88
893.158	38447.88
893.397	38423.88
893.636	38209.88
893.875	38191.88
894.114	37889.88
894.353	37689.88
894.592	37762.88
894.831	37441.88
895.069	37270.88
895.308	36875.88
895.547	36880.88
895.786	36633.88
896.024	36500.88
896.263	36507.88
896.501	36446.88
896.74	36281.88
896.978	36377.88
897.217	36059.88
897.455	35987.88
897.694	35897.88
897.932	35775.88
898.17	35612.88
898.408	35587.88
898.646	35381.88
898.885	35251.88
899.123	35005.88
899.361	34718.88
899.599	34420.88
899.837	34378.88
900.075	34025.88
900.312	33863.88
900.55	33595.88
900.788	33134.88
901.026	32849.88
901.263	32709.88
901.501	32352.88
901.739	32229.88
901.976	32096.88
902.214	31912.88
902.451	31761.88
902.689	31650.88
902.926	31567.88
903.163	31529.88
903.401	31563.88
903.638	31594.88
903.875	31523.88
904.112	31562.88
904.349	31315.88
904.586	31277.88
904.823	31173.88
905.06	30952.88
905.297	30767.88
905.534	30376.88
905.771	30263.88
906.008	30004.88
906.245	29917.88
906.481	29689.88
906.718	29522.88
906.955	29343.88
907.191	29329.88
907.428	29104.88
907.664	28870.88
907.901	28897.88
908.137	28863.88
908.374	28675.88
908.61	28589.88
908.846	28468.88
909.083	28298.88
909.319	28027.88
909.555	27943.88
909.791	27688.88
910.027	27349.88
910.263	27325.88
910.499	27094.88
910.735	26806.88
910.971	26562.88
911.207	26392.88
911.443	26221.88
911.678	26191.88
911.914	26075.88
912.15	26004.88
912.385	25828.88
912.621	25926.88
912.857	25923.88
913.092	25811.88
913.328	25803.88
913.563	25809.88
913.798	25655.88
914.034	25696.88
914.269	25648.88
914.504	25583.88
914.739	25447.88
914.975	25190.88
915.21	25017.88
915.445	24864.88
915.68	24662.88
915.915	24343.88
916.15	24056.88
916.384	23845.88
916.619	23504.88
916.854	23372.88
917.089	23340.88
917.324	22986.88
917.558	22756.88
917.793	22740.88
918.028	22642.88
918.262	22645.88
918.497	22485.88
918.731	22556.88
918.965	22506.88
919.2	22443.88
919.434	22409.88
919.668	22261.88
919.903	22241.88
920.137	22086.88
920.371	21909.88
920.605	21922.88
920.839	21612.88
921.073	21468.88
921.307	21318.88
921.541	21135.88
921.775	21113.88
922.009	20988.88
922.243	20897.88
922.476	20868.88
922.71	20865.88
922.944	20860.88
923.177	20807.88
923.411	20762.88
923.644	20640.88
923.878	20578.88
924.111	20513.88
924.345	20348.88
924.578	20305.88
924.811	20219.88
925.045	19980.88
925.278	20010.88
925.511	19883.88
925.744	19567.88
925.977	19446.88
926.21	19358.88
926.443	19230.88
926.676	18916.88
926.909	18861.88
927.142	18672.88
927.375	18531.88
927.608	18356.88
927.841	18332.88
928.073	18238.88
928.306	18145.88
928.539	18136.88
928.771	18108.88
929.004	18006.88
929.236	18064.88
929.469	18094.88
929.701	18117.88
929.933	18177.88
930.166	18148.88
930.398	17944.88
930.63	17994.88
930.862	17831.88
931.094	17799.88
931.327	17639.88
931.559	17597.88
931.791	17372.88
932.023	17225.88
932.255	17188.88
932.486	17091.88
932.718	16905.88
932.95	16804.88
933.182	16660.88
933.413	16549.88
933.645	16558.88
933.877	16424.88
934.108	16354.88
934.34	16297.88
934.571	16191.88
934.803	16124.88
935.034	16060.88
935.265	16028.88
935.497	15933.88
935.728	15826.88
935.959	15841.88
936.19	15759.88
936.422	15660.88
936.653	15499.88
936.884	15372.88
937.115	15274.88
937.346	15234.88
937.577	15155.88
937.807	15072.88
938.038	14927.88
938.269	14973.88
938.5	14876.88
938.73	14874.88
938.961	14751.88
939.192	14820.88
939.422	14703.88
939.653	14679.88
939.883	14591.88
940.114	14672.88
940.344	14601.88
940.574	14500.88
940.805	14437.88
941.035	14387.88
941.265	14245.88
941.495	14210.88
941.726	14002.88
941.956	13926.88
942.186	13833.88
942.416	13757.88
942.646	13565.88
942.876	13427.88
943.105	13336.88
943.335	13244.88
943.565	13100.88
943.795	12961.88
944.024	12878.88
944.254	12789.88
944.484	12667.88
944.713	12644.88
944.943	12565.88
945.172	12543.88
945.402	12582.88
945.631	12424.88
945.86	12340.88
946.09	12340.88
946.319	12381.88
946.548	12261.88
946.777	12232.88
947.006	12213.88
947.235	12084.88
947.465	12011.88
947.694	11955.88
947.922	11893.88
948.151	11798.88
948.38	11683.88
948.609	11644.88
948.838	11551.88
949.067	11423.88
949.295	11419.88
949.524	11303.88
949.752	11205.88
949.981	11110.88
950.21	11063.88
950.438	11000.88
950.666	10916.88
950.895	10865.88
951.123	10706.88
951.351	10681.88
951.58	10679.88
951.808	10610.88
952.036	10565.88
952.264	10448.88
952.492	10391.88
952.72	10300.88
952.948	10214.88
953.176	10141.88
953.404	10079.88
953.632	9998.88
953.86	9967.88
954.088	9793.88
954.315	9786.88
954.543	9693.88
954.771	9594.88
954.998	9577.88
955.226	9552.88
955.453	9477.88
955.681	9448.88
955.908	9446.88
956.135	9415.88
956.363	9319.88
956.59	9386.88
956.817	9295.88
957.045	9255.88
957.272	9234.88
957.499	9197.88
957.726	9149.88
957.953	9046.88
958.18	9035.88
958.407	9024.88
958.634	8961.88
958.861	8900.88
959.087	8879.88
959.314	8782.88
959.541	8675.88
959.767	8635.88
959.994	8588.88
960.221	8543.88
960.447	8427.88
960.674	8403.88
960.9	8271.88
961.127	8196.88
961.353	8202.88
961.579	8179.88
961.806	8067.88
962.032	8051.88
962.258	7968.88
962.484	7969.88
962.71	7907.88
962.936	7881.88
963.162	7864.88
963.388	7782.88
963.614	7862.88
963.84	7829.88
964.066	7828.88
964.292	7780.88
964.518	7768.88
964.743	7653.88
964.969	7669.88
965.195	7605.88
965.42	7576.88
965.646	7494.88
965.871	7509.88
966.097	7396.88
966.322	7363.88
966.547	7350.88
966.773	7259.88
966.998	7238.88
967.223	7276.88
967.448	7179.88
967.674	7174.88
967.899	7047.88
968.124	7034.88
968.349	7002.88
968.574	6981.88
968.799	6951.88
969.024	6843.88
969.248	6835.88
969.473	6800.88
969.698	6819.88
969.923	6696.88
970.147	6714.88
970.372	6701.88
970.596	6559.88
970.821	6547.88
971.046	6461.88
971.27	6480.88
971.494	6436.88
971.719	6359.88
971.943	6324.88
972.167	6264.88
972.392	6266.88
972.616	6262.88
972.84	6167.88
973.064	6144.88
973.288	6105.88
973.512	6048.88
973.736	6014.88
973.96	6057.88
974.184	6009.88
974.408	5989.88
974.631	5946.88
974.855	5928.88
975.079	5882.88
975.303	5853.88
975.526	5899.88
975.75	5789.88
975.973	5788.88
976.197	5761.88
976.42	5705.88
976.644	5764.88
976.867	5645.88
977.09	5662.88
977.313	5605.88
977.537	5558.88
977.76	5518.88
977.983	5442.88
978.206	5444.88
978.429	5387.88
978.652	5391.88
978.875	5392.88
979.098	5298.88
979.321	5217.88
979.544	5212.88
979.767	5186.88
979.989	5137.88
980.212	5146.88
980.435	5053.88
980.657	5035.88
980.88	5009.88
981.102	5031.88
981.325	5004.88
981.547	4946.88
981.77	4925.88
981.992	4927.88
982.214	4878.88
982.437	4837.88
982.659	4857.88
982.881	4775.88
983.103	4874.88
983.325	4791.88
983.547	4795.88
983.769	4703.88
983.991	4704.88
984.213	4651.88
984.435	4604.88
984.657	4614.88
984.879	4605.88
985.1	4581.88
985.322	4534.88
985.544	4501.88
985.765	4530.88
985.987	4483.88
986.208	4467.88
986.43	4481.88
986.651	4410.88
986.873	4407.88
987.094	4372.88
987.315	4350.88
987.536	4311.88
987.758	4261.88
987.979	4277.88
988.2	4218.88
988.421	4161.88
988.642	4168.88
988.863	4143.88
989.084	4100.88
989.305	4089.88
989.526	4068.88
989.747	4103.88
989.967	4038.88
990.188	4008.88
990.409	3998.88
990.629	3931.88
990.85	3890.88
991.071	3848.88
991.291	3876.88
991.512	3815.88
991.732	3804.88
991.952	3817.88
992.173	3784.88
992.393	3786.88
992.613	3729.88
992.834	3774.88
993.054	3785.88
993.274	3725.88
993.494	3725.88
993.714	3734.88
993.934	3717.88
994.154	3698.88
994.374	3688.88
994.594	3625.88
994.813	3600.88
995.033	3626.88
995.253	3632.88
995.473	3620.88
995.692	3540.88
995.912	3494.88
996.131	3531.88
996.351	3476.88
996.57	3456.88
996.79	3400.88
997.009	3378.88
997.228	3350.88
997.448	3335.88
997.667	3314.88
997.886	3265.88
998.105	3267.88
998.325	3219.88
998.544	3217.88
998.763	3208.88
998.982	3146.88
999.201	3115.88
999.419	3109.88
999.638	3123.88
999.857	3094.88
1000.076	3073.88
1000.295	3038.88
1000.513	3067.88
1000.732	3037.88
1000.95	2982.88
1001.169	3018.88
1001.388	2979.88
1001.606	2978.88
1001.824	2991.88
1002.043	2913.88
1002.261	2945.88
1002.479	2948.88
1002.698	2960.88
1002.916	2907.88
1003.134	2903.88
1003.352	2866.88
1003.57	2878.88
1003.788	2896.88
1004.006	2852.88
1004.224	2909.88
1004.442	2846.88
1004.66	2843.88
1004.878	2809.88
1005.095	2784.88
1005.313	2806.88
1005.531	2800.88
1005.748	2769.88
1005.966	2851.88
1006.184	2783.88
1006.401	2768.88
1006.618	2758.88
1006.836	2741.88
1007.053	2739.88
1007.271	2746.88
1007.488	2724.88
1007.705	2717.88
1007.922	2737.88
1008.139	2679.88
1008.357	2771.88
1008.574	2721.88
1008.791	2761.88
1009.008	2817.88
1009.225	2820.88
1009.441	2845.88
1009.658	2834.88
1009.875	2869.88
1010.092	2878.88
1010.309	2827.88
1010.525	2804.88
1010.742	2789.88
1010.958	2699.88
1011.175	2734.88
1011.391	2671.88
1011.608	2735.88
1011.824	2660.88
1012.041	2656.88
1012.257	2623.88
1012.473	2614.88
1012.689	2560.88
1012.906	2570.88
1013.122	2548.88
1013.338	2525.88
1013.554	2566.88
1013.77	2562.88
1013.986	2562.88
1014.202	2636.88
1014.418	2649.88
1014.634	2736.88
1014.849	2770.88
1015.065	2830.88
1015.281	2800.88
1015.496	2792.88
1015.712	2743.88
1015.928	2698.88
1016.143	2638.88
1016.359	2609.88
1016.574	2505.88
1016.79	2473.88
1017.005	2426.88
1017.22	2379.88
1017.435	2290.88
1017.651	2266.88
1017.866	2243.88
1018.081	2168.88
1018.296	2157.88
1018.511	2131.88
1018.726	2106.88
1018.941	2094.88
1019.156	2071.88
1019.371	2084.88
1019.586	2091.88
1019.801	2049.88
1020.015	2022.88
1020.23	2053.88
1020.445	2001.88
1020.659	1952.88
1020.874	1972.88
1021.088	1918.88
1021.303	1869.88
1021.517	1826.88
1021.732	1818.88
1021.946	1785.88
1022.16	1784.88
1022.375	1730.88
1022.589	1701.88
1022.803	1715.88
1023.017	1663.88
1023.231	1627.88
1023.445	1615.88
1023.659	1576.88
1023.873	1544.88
1024.087	1521.88
1024.301	1465.88
1024.515	1452.88
1024.729	1432.88
1024.942	1379.88
1025.156	1419.88
1025.37	1352.88
1025.583	1347.88
1025.797	1292.88
1026.01	1293.88
1026.224	1247.88
1026.437	1225.88
1026.651	1209.88
1026.864	1150.88
1027.077	1154.88
1027.291	1117.88
1027.504	1096.88
1027.717	1035.88
1027.93	1018.88
1028.143	1013.88
1028.356	956.88
1028.569	922.88
1028.782	859.88
1028.995	-3.12
1029.208	-2.12
1029.421	-1.12
1029.634	-1.12
