Data from QEP037381__454__15-55-49-074.txt Node

Date: Mon Mar 14 15:55:49 EDT 2022
User: dcclab
Spectrometer: QEP03738
Trigger mode: 4
Integration Time (sec): 2.500000E0
Scans to average: 1
Electric dark correction enabled: true
Nonlinearity correction enabled: false
Boxcar width: 0
XAxis mode: Wavelengths
Number of Pixels in Spectrum: 1044
>>>>>Begin Spectral Data<<<<<
783.959	13
784.218	2
784.476	-4
784.734	-4
784.992	242
785.251	229
785.509	234
785.767	228
786.025	218
786.283	229
786.541	230
786.798	231
787.056	230
787.314	209
787.572	218
787.83	213
788.087	232
788.345	215
788.602	214
788.86	219
789.117	217
789.375	209
789.632	224
789.89	215
790.147	237
790.404	233
790.661	240
790.919	240
791.176	231
791.433	241
791.69	241
791.947	253
792.204	240
792.461	263
792.718	256
792.974	265
793.231	282
793.488	295
793.745	285
794.001	310
794.258	336
794.514	320
794.771	355
795.027	359
795.284	360
795.54	386
795.797	418
796.053	447
796.309	482
796.565	523
796.822	564
797.078	643
797.334	743
797.59	873
797.846	1103
798.102	1405
798.358	1864
798.614	2655
798.869	3852
799.125	5639
799.381	8350
799.637	11793
799.892	16000
800.148	20688
800.403	25153
800.659	29009
800.914	31908
801.17	34010
801.425	35441
801.68	36380
801.936	37259
802.191	38033
802.446	38948
802.701	39766
802.957	40608
803.212	41467
803.467	42298
803.722	43103
803.977	43908
804.232	44769
804.486	45802
804.741	46608
804.996	47500
805.251	48252
805.505	49160
805.76	49836
806.015	50658
806.269	51379
806.524	52077
806.778	52438
807.033	53081
807.287	53669
807.541	54539
807.796	55180
808.05	55944
808.304	56277
808.558	56735
808.812	57078
809.066	57598
809.32	58072
809.574	58317
809.828	58741
810.082	59099
810.336	59415
810.59	60265
810.844	60992
811.097	61794
811.351	62486
811.605	63602
811.858	64558
812.112	65784
812.365	66720
812.619	67806
812.872	68806
813.126	69955
813.379	70631
813.632	71918
813.885	72560
814.139	73851
814.392	74815
814.645	76245
814.898	77616
815.151	78931
815.404	80335
815.657	81630
815.91	83096
816.163	84238
816.416	84907
816.668	85374
816.921	86080
817.174	86144
817.426	86214
817.679	86251
817.931	86083
818.184	86243
818.436	86488
818.689	86502
818.941	86719
819.194	87071
819.446	87269
819.698	87764
819.95	87920
820.202	88440
820.455	88851
820.707	88906
820.959	89141
821.211	88878
821.462	88934
821.714	88775
821.966	88355
822.218	88255
822.47	87448
822.722	87309
822.973	86916
823.225	86696
823.476	86731
823.728	86717
823.979	86770
824.231	86696
824.482	86932
824.734	86813
824.985	86682
825.236	86783
825.487	86577
825.739	86350
825.99	85781
826.241	85635
826.492	85102
826.743	84968
826.994	84451
827.245	84396
827.496	83916
827.747	83897
827.997	83910
828.248	83751
828.499	84075
828.75	83812
829	83958
829.251	83818
829.501	83553
829.752	83512
830.002	82971
830.253	82539
830.503	82203
830.753	81519
831.004	81046
831.254	80783
831.504	80761
831.754	80424
832.004	80371
832.254	80350
832.504	80716
832.754	80420
833.004	80605
833.254	80437
833.504	80239
833.754	79934
834.003	79876
834.253	79416
834.503	78695
834.752	78252
835.002	78057
835.252	77792
835.501	77446
835.75	77170
836	76922
836.249	77162
836.499	77093
836.748	76886
836.997	76998
837.246	77081
837.495	77580
837.744	78180
837.993	78958
838.242	79158
838.491	78968
838.74	78051
838.989	76876
839.238	76097
839.487	75199
839.736	74674
839.984	74255
840.233	73914
840.482	73603
840.73	73413
840.979	73006
841.227	72880
841.476	72396
841.724	72302
841.972	72205
842.221	71931
842.469	71823
842.717	71450
842.965	71204
843.213	70973
843.461	70895
843.71	70477
843.958	70158
844.205	70189
844.453	69813
844.701	69922
844.949	69759
845.197	69587
845.445	69814
845.692	69900
845.94	69721
846.188	69902
846.435	69603
846.683	69381
846.93	69172
847.178	68634
847.425	68032
847.672	67579
847.92	67284
848.167	66439
848.414	66157
848.661	65652
848.908	65319
849.155	65056
849.402	65263
849.649	65376
849.896	65726
850.143	65997
850.39	66374
850.637	66479
850.884	66343
851.131	66002
851.377	65695
851.624	65528
851.87	65351
852.117	64980
852.364	64548
852.61	64334
852.856	63987
853.103	64091
853.349	63678
853.595	63369
853.842	63148
854.088	62853
854.334	62749
854.58	62693
854.826	62452
855.072	61970
855.318	61402
855.564	60864
855.81	60533
856.056	59801
856.302	59548
856.548	59078
856.793	58602
857.039	58268
857.285	58237
857.53	58216
857.776	58208
858.021	58289
858.267	58882
858.512	58777
858.758	58912
859.003	58924
859.248	58771
859.493	58791
859.739	58402
859.984	58161
860.229	57897
860.474	57502
860.719	57335
860.964	56908
861.209	56588
861.454	56176
861.699	55862
861.943	55646
862.188	55383
862.433	55117
862.678	55012
862.922	54964
863.167	54713
863.411	54315
863.656	54481
863.9	54139
864.145	54004
864.389	53795
864.634	53470
864.878	53392
865.122	53202
865.366	53013
865.61	52699
865.855	52730
866.099	52445
866.343	52518
866.587	52322
866.831	52522
867.074	52412
867.318	52434
867.562	52384
867.806	52209
868.05	52105
868.293	52067
868.537	51969
868.78	51801
869.024	51427
869.267	51056
869.511	50657
869.754	50279
869.998	49742
870.241	49212
870.484	49009
870.728	48614
870.971	48435
871.214	48059
871.457	48146
871.7	48033
871.943	48021
872.186	48226
872.429	47940
872.672	47932
872.915	47913
873.158	47975
873.4	47982
873.643	47541
873.886	47624
874.128	47447
874.371	47285
874.613	46991
874.856	46935
875.098	46713
875.341	46635
875.583	46539
875.825	46310
876.068	46204
876.31	45526
876.552	45083
876.794	44901
877.036	44642
877.278	44407
877.52	44259
877.762	44063
878.004	43893
878.246	43580
878.488	43569
878.73	43595
878.972	43481
879.213	43453
879.455	43668
879.697	43214
879.938	43240
880.18	43105
880.421	43012
880.663	42975
880.904	42914
881.145	43236
881.387	43302
881.628	43039
881.869	42755
882.11	42662
882.352	42388
882.593	42106
882.834	42039
883.075	41757
883.316	41635
883.557	41405
883.797	41286
884.038	40968
884.279	40461
884.52	39949
884.761	39554
885.001	39147
885.242	38915
885.482	38699
885.723	38462
885.963	38317
886.204	38226
886.444	38118
886.685	37818
886.925	37709
887.165	37498
887.405	37384
887.646	37147
887.886	37038
888.126	37063
888.366	37134
888.606	37062
888.846	37131
889.086	37045
889.326	37241
889.565	37095
889.805	36983
890.045	36981
890.285	36730
890.524	36734
890.764	36435
891.003	36208
891.243	35799
891.482	35541
891.722	35240
891.961	35036
892.201	34749
892.44	34475
892.679	34412
892.918	34237
893.158	34293
893.397	34122
893.636	33964
893.875	33696
894.114	33567
894.353	33370
894.592	33441
894.831	33350
895.069	32988
895.308	32881
895.547	32736
895.786	32601
896.024	32608
896.263	32440
896.501	32360
896.74	32187
896.978	32152
897.217	32066
897.455	31957
897.694	31718
897.932	31674
898.17	31550
898.408	31630
898.646	31383
898.885	31221
899.123	31012
899.361	30922
899.599	30572
899.837	30497
900.075	30233
900.312	29945
900.55	29858
900.788	29374
901.026	29219
901.263	28971
901.501	28825
901.739	28546
901.976	28431
902.214	28297
902.451	28214
902.689	28152
902.926	28034
903.163	28004
903.401	27971
903.638	28134
903.875	27938
904.112	27955
904.349	27832
904.586	27598
904.823	27613
905.06	27520
905.297	27295
905.534	27209
905.771	26846
906.008	26791
906.245	26597
906.481	26359
906.718	26278
906.955	26127
907.191	26014
907.428	25914
907.664	25816
907.901	25664
908.137	25641
908.374	25548
908.61	25525
908.846	25289
909.083	25062
909.319	24900
909.555	24866
909.791	24601
910.027	24511
910.263	24230
910.499	24018
910.735	23804
910.971	23547
911.207	23503
911.443	23330
911.678	23243
911.914	23149
912.15	23143
912.385	23053
912.621	23185
912.857	23055
913.092	22941
913.328	22952
913.563	22926
913.798	22903
914.034	22734
914.269	22737
914.504	22703
914.739	22630
914.975	22313
915.21	22269
915.445	22065
915.68	21992
915.915	21707
916.15	21430
916.384	21113
916.619	20984
916.854	20786
917.089	20750
917.324	20498
917.558	20285
917.793	20208
918.028	20044
918.262	20157
918.497	20138
918.731	20120
918.965	20029
919.2	19921
919.434	19844
919.668	19884
919.903	19655
920.137	19701
920.371	19572
920.605	19447
920.839	19341
921.073	19263
921.307	19108
921.541	18855
921.775	18844
922.009	18783
922.243	18715
922.476	18662
922.71	18589
922.944	18585
923.177	18525
923.411	18519
923.644	18564
923.878	18430
924.111	18316
924.345	18170
924.578	18106
924.811	18044
925.045	17969
925.278	17844
925.511	17677
925.744	17393
925.977	17372
926.21	17226
926.443	17073
926.676	16917
926.909	16841
927.142	16727
927.375	16550
927.608	16493
927.841	16392
928.073	16286
928.306	16267
928.539	16228
928.771	16244
929.004	16180
929.236	16236
929.469	16152
929.701	16252
929.933	16221
930.166	16229
930.398	16063
930.63	16017
930.862	16021
931.094	15869
931.327	15861
931.559	15659
931.791	15533
932.023	15531
932.255	15394
932.486	15274
932.718	15133
932.95	15019
933.182	14977
933.413	14875
933.645	14787
933.877	14709
934.108	14673
934.34	14646
934.571	14470
934.803	14463
935.034	14512
935.265	14321
935.497	14310
935.728	14242
935.959	14209
936.19	14056
936.422	14038
936.653	13986
936.884	13834
937.115	13753
937.346	13645
937.577	13576
937.807	13477
938.038	13327
938.269	13358
938.5	13319
938.73	13343
938.961	13327
939.192	13295
939.422	13220
939.653	13203
939.883	13165
940.114	13154
940.344	13077
940.574	13018
940.805	13000
941.035	12858
941.265	12760
941.495	12664
941.726	12607
941.956	12538
942.186	12380
942.416	12338
942.646	12232
942.876	12046
943.105	11985
943.335	11905
943.565	11766
943.795	11666
944.024	11653
944.254	11499
944.484	11403
944.713	11346
944.943	11257
945.172	11271
945.402	11185
945.631	11182
945.86	11106
946.09	11161
946.319	11124
946.548	11087
946.777	11081
947.006	10951
947.235	10879
947.465	10838
947.694	10803
947.922	10691
948.151	10629
948.38	10546
948.609	10518
948.838	10400
949.067	10346
949.295	10268
949.524	10110
949.752	10093
949.981	10048
950.21	9893
950.438	9916
950.666	9827
950.895	9812
951.123	9701
951.351	9589
951.58	9549
951.808	9564
952.036	9401
952.264	9391
952.492	9365
952.72	9198
952.948	9235
953.176	9126
953.404	9124
953.632	9052
953.86	8954
954.088	8916
954.315	8790
954.543	8774
954.771	8731
954.998	8676
955.226	8640
955.453	8578
955.681	8590
955.908	8543
956.135	8455
956.363	8501
956.59	8436
956.817	8423
957.045	8350
957.272	8331
957.499	8300
957.726	8295
957.953	8260
958.18	8148
958.407	8116
958.634	8166
958.861	8054
959.087	8030
959.314	7864
959.541	7801
959.767	7788
959.994	7774
960.221	7685
960.447	7640
960.674	7565
960.9	7494
961.127	7451
961.353	7466
961.579	7370
961.806	7315
962.032	7287
962.258	7273
962.484	7224
962.71	7169
962.936	7175
963.162	7104
963.388	7096
963.614	7083
963.84	7092
964.066	7059
964.292	7004
964.518	7048
964.743	6985
964.969	6881
965.195	6906
965.42	6881
965.646	6784
965.871	6803
966.097	6776
966.322	6644
966.547	6652
966.773	6625
966.998	6581
967.223	6541
967.448	6529
967.674	6447
967.899	6426
968.124	6420
968.349	6403
968.574	6349
968.799	6317
969.024	6246
969.248	6186
969.473	6141
969.698	6183
969.923	6099
970.147	6011
970.372	6022
970.596	5992
970.821	5962
971.046	5961
971.27	5868
971.494	5834
971.719	5760
971.943	5758
972.167	5715
972.392	5669
972.616	5660
972.84	5647
973.064	5510
973.288	5581
973.512	5512
973.736	5497
973.96	5489
974.184	5454
974.408	5395
974.631	5448
974.855	5414
975.079	5393
975.303	5354
975.526	5290
975.75	5283
975.973	5258
976.197	5260
976.42	5186
976.644	5181
976.867	5172
977.09	5143
977.313	5119
977.537	5081
977.76	4981
977.983	4948
978.206	4959
978.429	4959
978.652	4901
978.875	4876
979.098	4860
979.321	4780
979.544	4746
979.767	4706
979.989	4663
980.212	4642
980.435	4618
980.657	4620
980.88	4554
981.102	4592
981.325	4575
981.547	4531
981.77	4485
981.992	4485
982.214	4418
982.437	4440
982.659	4443
982.881	4417
983.103	4400
983.325	4358
983.547	4342
983.769	4331
983.991	4300
984.213	4233
984.435	4277
984.657	4233
984.879	4243
985.1	4190
985.322	4155
985.544	4138
985.765	4109
985.987	4121
986.208	4116
986.43	4060
986.651	4075
986.873	4008
987.094	4038
987.315	3969
987.536	3906
987.758	3913
987.979	3867
988.2	3883
988.421	3827
988.642	3799
988.863	3778
989.084	3748
989.305	3746
989.526	3688
989.747	3696
989.967	3694
990.188	3638
990.409	3635
990.629	3573
990.85	3598
991.071	3541
991.291	3528
991.512	3501
991.732	3491
991.952	3492
992.173	3484
992.393	3466
992.613	3444
992.834	3454
993.054	3458
993.274	3411
993.494	3377
993.714	3406
993.934	3412
994.154	3413
994.374	3401
994.594	3343
994.813	3317
995.033	3297
995.253	3296
995.473	3303
995.692	3261
995.912	3240
996.131	3230
996.351	3255
996.57	3166
996.79	3144
997.009	3109
997.228	3113
997.448	3061
997.667	2982
997.886	3024
998.105	2992
998.325	2995
998.544	2942
998.763	2955
998.982	2917
999.201	2877
999.419	2877
999.638	2857
999.857	2847
1000.076	2832
1000.295	2821
1000.513	2801
1000.732	2828
1000.95	2808
1001.169	2778
1001.388	2746
1001.606	2770
1001.824	2736
1002.043	2716
1002.261	2716
1002.479	2705
1002.698	2706
1002.916	2658
1003.134	2716
1003.352	2666
1003.57	2661
1003.788	2657
1004.006	2664
1004.224	2642
1004.442	2621
1004.66	2621
1004.878	2625
1005.095	2564
1005.313	2571
1005.531	2614
1005.748	2576
1005.966	2691
1006.184	2528
1006.401	2564
1006.618	2536
1006.836	2536
1007.053	2508
1007.271	2558
1007.488	2499
1007.705	2555
1007.922	2537
1008.139	2505
1008.357	2549
1008.574	2557
1008.791	2593
1009.008	2668
1009.225	2618
1009.441	2667
1009.658	2644
1009.875	2675
1010.092	2701
1010.309	2676
1010.525	2657
1010.742	2604
1010.958	2578
1011.175	2573
1011.391	2502
1011.608	2527
1011.824	2532
1012.041	2440
1012.257	2486
1012.473	2437
1012.689	2425
1012.906	2412
1013.122	2426
1013.338	2368
1013.554	2384
1013.77	2427
1013.986	2428
1014.202	2433
1014.418	2500
1014.634	2559
1014.849	2615
1015.065	2659
1015.281	2652
1015.496	2653
1015.712	2602
1015.928	2535
1016.143	2472
1016.359	2416
1016.574	2387
1016.79	2312
1017.005	2244
1017.22	2204
1017.435	2155
1017.651	2131
1017.866	2110
1018.081	2081
1018.296	2041
1018.511	1994
1018.726	2015
1018.941	1969
1019.156	1954
1019.371	1923
1019.586	1951
1019.801	1924
1020.015	1943
1020.23	1900
1020.445	1909
1020.659	1870
1020.874	1820
1021.088	1797
1021.303	1733
1021.517	1716
1021.732	1710
1021.946	1704
1022.16	1706
1022.375	1661
1022.589	1615
1022.803	1557
1023.017	1564
1023.231	1514
1023.445	1521
1023.659	1475
1023.873	1425
1024.087	1373
1024.301	1372
1024.515	1364
1024.729	1351
1024.942	1333
1025.156	1317
1025.37	1268
1025.583	1243
1025.797	1214
1026.01	1240
1026.224	1152
1026.437	1128
1026.651	1124
1026.864	1087
1027.077	1086
1027.291	1052
1027.504	1023
1027.717	972
1027.93	970
1028.143	940
1028.356	892
1028.569	866
1028.782	797
1028.995	-4
1029.208	-1
1029.421	2
1029.634	-4
