Data from QEP037381__455__15-55-51-575.txt Node

Date: Mon Mar 14 15:55:51 EDT 2022
User: dcclab
Spectrometer: QEP03738
Trigger mode: 4
Integration Time (sec): 2.500000E0
Scans to average: 1
Electric dark correction enabled: true
Nonlinearity correction enabled: false
Boxcar width: 0
XAxis mode: Wavelengths
Number of Pixels in Spectrum: 1044
>>>>>Begin Spectral Data<<<<<
783.959	14.5
784.218	0.5
784.476	-0.5
784.734	-3.5
784.992	236.5
785.251	221.5
785.509	228.5
785.767	229.5
786.025	219.5
786.283	223.5
786.541	227.5
786.798	224.5
787.056	216.5
787.314	205.5
787.572	217.5
787.83	203.5
788.087	223.5
788.345	212.5
788.602	216.5
788.86	210.5
789.117	218.5
789.375	211.5
789.632	212.5
789.89	208.5
790.147	221.5
790.404	217.5
790.661	219.5
790.919	235.5
791.176	226.5
791.433	230.5
791.69	241.5
791.947	250.5
792.204	227.5
792.461	246.5
792.718	253.5
792.974	246.5
793.231	259.5
793.488	276.5
793.745	287.5
794.001	300.5
794.258	292.5
794.514	312.5
794.771	324.5
795.027	350.5
795.284	347.5
795.54	379.5
795.797	391.5
796.053	424.5
796.309	452.5
796.565	502.5
796.822	538.5
797.078	600.5
797.334	728.5
797.59	819.5
797.846	1026.5
798.102	1347.5
798.358	1801.5
798.614	2502.5
798.869	3644.5
799.125	5373.5
799.381	7824.5
799.637	11177.5
799.892	15160.5
800.148	19558.5
800.403	23739.5
800.659	27343.5
800.914	30203.5
801.17	32084.5
801.425	33421.5
801.68	34416.5
801.936	35095.5
802.191	35781.5
802.446	36667.5
802.701	37370.5
802.957	38315.5
803.212	39062.5
803.467	39830.5
803.722	40617.5
803.977	41478.5
804.232	42180.5
804.486	43143.5
804.741	43862.5
804.996	44789.5
805.251	45471.5
805.505	46261.5
805.76	47263.5
806.015	47826.5
806.269	48379.5
806.524	49055.5
806.778	49663.5
807.033	49885.5
807.287	50640.5
807.541	51301.5
807.796	52019.5
808.05	52773.5
808.304	53286.5
808.558	53463.5
808.812	53854.5
809.066	54366.5
809.32	54670.5
809.574	55221.5
809.828	55465.5
810.082	55833.5
810.336	56305.5
810.59	56836.5
810.844	57455.5
811.097	58298.5
811.351	59174.5
811.605	59917.5
811.858	60970.5
812.112	61844.5
812.365	63029.5
812.619	63890.5
812.872	64896.5
813.126	65924.5
813.379	66803.5
813.632	67648.5
813.885	68775.5
814.139	69571.5
814.392	70707.5
814.645	72052.5
814.898	73214.5
815.151	74642.5
815.404	75930.5
815.657	77422.5
815.91	78469.5
816.163	79500.5
816.416	80169.5
816.668	80781.5
816.921	81295.5
817.174	81428.5
817.426	81399.5
817.679	81493.5
817.931	81406.5
818.184	81271.5
818.436	81792.5
818.689	81690.5
818.941	81834.5
819.194	82274.5
819.446	82595.5
819.698	83005.5
819.95	83420.5
820.202	83537.5
820.455	83830.5
820.707	84064.5
820.959	84228.5
821.211	84118.5
821.462	83982.5
821.714	83930.5
821.966	83735.5
822.218	83220.5
822.47	82842.5
822.722	82772.5
822.973	82508.5
823.225	81967.5
823.476	81805.5
823.728	82019.5
823.979	82024.5
824.231	82151.5
824.482	82361.5
824.734	82114.5
824.985	82020.5
825.236	81868.5
825.487	81624.5
825.739	81504.5
825.99	81199.5
826.241	81175.5
826.492	80554.5
826.743	80323.5
826.994	80033.5
827.245	79636.5
827.496	79639.5
827.747	79395.5
827.997	79436.5
828.248	79520.5
828.499	79571.5
828.75	79514.5
829	79550.5
829.251	79459.5
829.501	79177.5
829.752	78916.5
830.002	78610.5
830.253	78116.5
830.503	77802.5
830.753	77310.5
831.004	76809.5
831.254	76524.5
831.504	76342.5
831.754	76389.5
832.004	76126.5
832.254	76339.5
832.504	76204.5
832.754	76520.5
833.004	76165.5
833.254	76165.5
833.504	75847.5
833.754	75736.5
834.003	75691.5
834.253	75295.5
834.503	74722.5
834.752	74343.5
835.002	74006.5
835.252	73740.5
835.501	73451.5
835.75	73213.5
836	72850.5
836.249	72959.5
836.499	72968.5
836.748	72986.5
836.997	72945.5
837.246	73333.5
837.495	73568.5
837.744	74230.5
837.993	74946.5
838.242	75307.5
838.491	74988.5
838.74	73890.5
838.989	73051.5
839.238	72092.5
839.487	71509.5
839.736	70878.5
839.984	70623.5
840.233	70198.5
840.482	69860.5
840.73	69488.5
840.979	69315.5
841.227	69072.5
841.476	68857.5
841.724	68684.5
841.972	68415.5
842.221	68242.5
842.469	68064.5
842.717	67605.5
842.965	67600.5
843.213	67334.5
843.461	67277.5
843.71	66712.5
843.958	66706.5
844.205	66396.5
844.453	66484.5
844.701	66220.5
844.949	66294.5
845.197	66194.5
845.445	66149.5
845.692	66284.5
845.94	66294.5
846.188	66248.5
846.435	66129.5
846.683	65785.5
846.93	65511.5
847.178	65308.5
847.425	64896.5
847.672	64099.5
847.92	63851.5
848.167	63221.5
848.414	62735.5
848.661	62360.5
848.908	62157.5
849.155	61996.5
849.402	61828.5
849.649	62072.5
849.896	62346.5
850.143	62831.5
850.39	63053.5
850.637	63079.5
850.884	62846.5
851.131	62819.5
851.377	62564.5
851.624	62282.5
851.87	61958.5
852.117	61746.5
852.364	61382.5
852.61	61021.5
852.856	61116.5
853.103	60766.5
853.349	60615.5
853.595	60433.5
853.842	59842.5
854.088	59839.5
854.334	59916.5
854.58	59477.5
854.826	59344.5
855.072	59072.5
855.318	58551.5
855.564	57946.5
855.81	57559.5
856.056	57067.5
856.302	56517.5
856.548	56098.5
856.793	55848.5
857.039	55453.5
857.285	55435.5
857.53	55384.5
857.776	55411.5
858.021	55366.5
858.267	55702.5
858.512	55918.5
858.758	55805.5
859.003	56082.5
859.248	56074.5
859.493	55869.5
859.739	55892.5
859.984	55604.5
860.229	55235.5
860.474	54985.5
860.719	54533.5
860.964	54328.5
861.209	53882.5
861.454	53709.5
861.699	53237.5
861.943	52961.5
862.188	52736.5
862.433	52470.5
862.678	52103.5
862.922	52327.5
863.167	51896.5
863.411	51793.5
863.656	51644.5
863.9	51690.5
864.145	51223.5
864.389	51138.5
864.634	50980.5
864.878	50671.5
865.122	50346.5
865.366	50242.5
865.61	50270.5
865.855	50295.5
866.099	50046.5
866.343	49960.5
866.587	49889.5
866.831	49921.5
867.074	49895.5
867.318	49972.5
867.562	49841.5
867.806	49751.5
868.05	49607.5
868.293	49558.5
868.537	49246.5
868.78	49181.5
869.024	48936.5
869.267	48515.5
869.511	48210.5
869.754	47819.5
869.998	47367.5
870.241	46977.5
870.484	46731.5
870.728	46213.5
870.971	45972.5
871.214	45876.5
871.457	45878.5
871.7	45681.5
871.943	45782.5
872.186	45846.5
872.429	45771.5
872.672	45686.5
872.915	45785.5
873.158	45674.5
873.4	45586.5
873.643	45495.5
873.886	45412.5
874.128	45187.5
874.371	44893.5
874.613	44890.5
874.856	44730.5
875.098	44557.5
875.341	44421.5
875.583	44435.5
875.825	44253.5
876.068	43838.5
876.31	43655.5
876.552	43183.5
876.794	42973.5
877.036	42519.5
877.278	42278.5
877.52	42197.5
877.762	41785.5
878.004	41770.5
878.246	41639.5
878.488	41592.5
878.73	41703.5
878.972	41559.5
879.213	41407.5
879.455	41451.5
879.697	41255.5
879.938	41189.5
880.18	41056.5
880.421	40834.5
880.663	40981.5
880.904	40960.5
881.145	41197.5
881.387	41237.5
881.628	41037.5
881.869	40930.5
882.11	40682.5
882.352	40437.5
882.593	40246.5
882.834	40104.5
883.075	39946.5
883.316	39674.5
883.557	39644.5
883.797	39515.5
884.038	39186.5
884.279	38713.5
884.52	38090.5
884.761	37798.5
885.001	37431.5
885.242	37097.5
885.482	36977.5
885.723	36769.5
885.963	36502.5
886.204	36439.5
886.444	36391.5
886.685	36223.5
886.925	35973.5
887.165	35834.5
887.405	35747.5
887.646	35496.5
887.886	35500.5
888.126	35325.5
888.366	35235.5
888.606	35429.5
888.846	35435.5
889.086	35594.5
889.326	35339.5
889.565	35472.5
889.805	35361.5
890.045	35275.5
890.285	35190.5
890.524	34998.5
890.764	34839.5
891.003	34470.5
891.243	34166.5
891.482	33924.5
891.722	33610.5
891.961	33374.5
892.201	33286.5
892.44	33084.5
892.679	32868.5
892.918	32884.5
893.158	32678.5
893.397	32585.5
893.636	32398.5
893.875	32218.5
894.114	32068.5
894.353	32000.5
894.592	31946.5
894.831	31758.5
895.069	31499.5
895.308	31339.5
895.547	31128.5
895.786	31032.5
896.024	31030.5
896.263	30939.5
896.501	30928.5
896.74	30767.5
896.978	30634.5
897.217	30701.5
897.455	30571.5
897.694	30381.5
897.932	30384.5
898.17	30150.5
898.408	30063.5
898.646	29892.5
898.885	29856.5
899.123	29686.5
899.361	29402.5
899.599	29259.5
899.837	29072.5
900.075	29040.5
900.312	28660.5
900.55	28338.5
900.788	28084.5
901.026	27842.5
901.263	27556.5
901.501	27431.5
901.739	27319.5
901.976	27192.5
902.214	27030.5
902.451	26876.5
902.689	26809.5
902.926	26914.5
903.163	26747.5
903.401	26755.5
903.638	26792.5
903.875	26832.5
904.112	26609.5
904.349	26720.5
904.586	26560.5
904.823	26479.5
905.06	26360.5
905.297	26045.5
905.534	25830.5
905.771	25717.5
906.008	25381.5
906.245	25252.5
906.481	25201.5
906.718	25061.5
906.955	24923.5
907.191	24858.5
907.428	24623.5
907.664	24731.5
907.901	24514.5
908.137	24586.5
908.374	24419.5
908.61	24317.5
908.846	24108.5
909.083	23967.5
909.319	23746.5
909.555	23602.5
909.791	23528.5
910.027	23346.5
910.263	23037.5
910.499	23011.5
910.735	22862.5
910.971	22645.5
911.207	22476.5
911.443	22254.5
911.678	22133.5
911.914	22066.5
912.15	22151.5
912.385	21994.5
912.621	21974.5
912.857	21948.5
913.092	21972.5
913.328	21996.5
913.563	21945.5
913.798	21884.5
914.034	21785.5
914.269	21721.5
914.504	21729.5
914.739	21636.5
914.975	21446.5
915.21	21281.5
915.445	21120.5
915.68	20995.5
915.915	20761.5
916.15	20422.5
916.384	20242.5
916.619	19981.5
916.854	19825.5
917.089	19711.5
917.324	19578.5
917.558	19527.5
917.793	19294.5
918.028	19214.5
918.262	19217.5
918.497	19160.5
918.731	19140.5
918.965	19111.5
919.2	19144.5
919.434	18902.5
919.668	19025.5
919.903	18972.5
920.137	18921.5
920.371	18809.5
920.605	18674.5
920.839	18469.5
921.073	18374.5
921.307	18246.5
921.541	18160.5
921.775	17967.5
922.009	17939.5
922.243	17894.5
922.476	17862.5
922.71	17835.5
922.944	17794.5
923.177	17721.5
923.411	17633.5
923.644	17633.5
923.878	17588.5
924.111	17455.5
924.345	17508.5
924.578	17337.5
924.811	17239.5
925.045	17099.5
925.278	17089.5
925.511	16954.5
925.744	16771.5
925.977	16608.5
926.21	16509.5
926.443	16415.5
926.676	16231.5
926.909	16059.5
927.142	15979.5
927.375	15862.5
927.608	15761.5
927.841	15676.5
928.073	15549.5
928.306	15537.5
928.539	15525.5
928.771	15552.5
929.004	15489.5
929.236	15547.5
929.469	15435.5
929.701	15504.5
929.933	15540.5
930.166	15561.5
930.398	15457.5
930.63	15382.5
930.862	15311.5
931.094	15232.5
931.327	15164.5
931.559	15040.5
931.791	14897.5
932.023	14836.5
932.255	14796.5
932.486	14573.5
932.718	14471.5
932.95	14396.5
933.182	14316.5
933.413	14290.5
933.645	14086.5
933.877	14268.5
934.108	14051.5
934.34	14099.5
934.571	13996.5
934.803	13925.5
935.034	13827.5
935.265	13738.5
935.497	13655.5
935.728	13705.5
935.959	13578.5
936.19	13553.5
936.422	13368.5
936.653	13336.5
936.884	13367.5
937.115	13185.5
937.346	13058.5
937.577	13011.5
937.807	12878.5
938.038	12841.5
938.269	12882.5
938.5	12816.5
938.73	12793.5
938.961	12681.5
939.192	12862.5
939.422	12683.5
939.653	12691.5
939.883	12627.5
940.114	12675.5
940.344	12616.5
940.574	12464.5
940.805	12427.5
941.035	12327.5
941.265	12170.5
941.495	12162.5
941.726	12070.5
941.956	11957.5
942.186	11894.5
942.416	11766.5
942.646	11607.5
942.876	11524.5
943.105	11510.5
943.335	11412.5
943.565	11329.5
943.795	11232.5
944.024	11133.5
944.254	11014.5
944.484	10923.5
944.713	10925.5
944.943	10894.5
945.172	10809.5
945.402	10752.5
945.631	10833.5
945.86	10754.5
946.09	10637.5
946.319	10602.5
946.548	10616.5
946.777	10615.5
947.006	10502.5
947.235	10482.5
947.465	10451.5
947.694	10297.5
947.922	10268.5
948.151	10209.5
948.38	10068.5
948.609	10087.5
948.838	9978.5
949.067	9860.5
949.295	9840.5
949.524	9733.5
949.752	9646.5
949.981	9677.5
950.21	9615.5
950.438	9513.5
950.666	9402.5
950.895	9410.5
951.123	9305.5
951.351	9244.5
951.58	9187.5
951.808	9170.5
952.036	9072.5
952.264	9058.5
952.492	8984.5
952.72	8869.5
952.948	8910.5
953.176	8784.5
953.404	8766.5
953.632	8673.5
953.86	8644.5
954.088	8461.5
954.315	8406.5
954.543	8433.5
954.771	8305.5
954.998	8319.5
955.226	8220.5
955.453	8237.5
955.681	8257.5
955.908	8138.5
956.135	8151.5
956.363	8211.5
956.59	8079.5
956.817	8100.5
957.045	8075.5
957.272	8046.5
957.499	7939.5
957.726	7884.5
957.953	7955.5
958.18	7925.5
958.407	7767.5
958.634	7774.5
958.861	7693.5
959.087	7672.5
959.314	7604.5
959.541	7528.5
959.767	7506.5
959.994	7431.5
960.221	7388.5
960.447	7343.5
960.674	7330.5
960.9	7192.5
961.127	7169.5
961.353	7163.5
961.579	7032.5
961.806	7085.5
962.032	6958.5
962.258	6973.5
962.484	6987.5
962.71	6856.5
962.936	6805.5
963.162	6872.5
963.388	6844.5
963.614	6828.5
963.84	6821.5
964.066	6773.5
964.292	6723.5
964.518	6688.5
964.743	6623.5
964.969	6681.5
965.195	6687.5
965.42	6612.5
965.646	6525.5
965.871	6514.5
966.097	6444.5
966.322	6463.5
966.547	6425.5
966.773	6372.5
966.998	6371.5
967.223	6323.5
967.448	6268.5
967.674	6182.5
967.899	6163.5
968.124	6200.5
968.349	6115.5
968.574	6044.5
968.799	6017.5
969.024	5960.5
969.248	6003.5
969.473	5920.5
969.698	5911.5
969.923	5879.5
970.147	5824.5
970.372	5813.5
970.596	5779.5
970.821	5721.5
971.046	5689.5
971.27	5683.5
971.494	5639.5
971.719	5525.5
971.943	5582.5
972.167	5496.5
972.392	5454.5
972.616	5427.5
972.84	5379.5
973.064	5371.5
973.288	5333.5
973.512	5303.5
973.736	5306.5
973.96	5289.5
974.184	5224.5
974.408	5272.5
974.631	5223.5
974.855	5229.5
975.079	5197.5
975.303	5137.5
975.526	5185.5
975.75	5113.5
975.973	5088.5
976.197	5078.5
976.42	4994.5
976.644	5014.5
976.867	4958.5
977.09	4911.5
977.313	4927.5
977.537	4913.5
977.76	4830.5
977.983	4870.5
978.206	4769.5
978.429	4709.5
978.652	4722.5
978.875	4651.5
979.098	4629.5
979.321	4603.5
979.544	4574.5
979.767	4580.5
979.989	4550.5
980.212	4494.5
980.435	4487.5
980.657	4415.5
980.88	4439.5
981.102	4414.5
981.325	4413.5
981.547	4397.5
981.77	4294.5
981.992	4326.5
982.214	4298.5
982.437	4270.5
982.659	4211.5
982.881	4291.5
983.103	4240.5
983.325	4163.5
983.547	4183.5
983.769	4158.5
983.991	4109.5
984.213	4133.5
984.435	4094.5
984.657	4084.5
984.879	4064.5
985.1	4034.5
985.322	3998.5
985.544	3939.5
985.765	3950.5
985.987	3950.5
986.208	3943.5
986.43	3940.5
986.651	3903.5
986.873	3877.5
987.094	3855.5
987.315	3802.5
987.536	3756.5
987.758	3750.5
987.979	3725.5
988.2	3718.5
988.421	3705.5
988.642	3683.5
988.863	3639.5
989.084	3611.5
989.305	3580.5
989.526	3587.5
989.747	3573.5
989.967	3552.5
990.188	3520.5
990.409	3485.5
990.629	3459.5
990.85	3467.5
991.071	3418.5
991.291	3423.5
991.512	3400.5
991.732	3392.5
991.952	3391.5
992.173	3345.5
992.393	3348.5
992.613	3381.5
992.834	3327.5
993.054	3310.5
993.274	3318.5
993.494	3284.5
993.714	3301.5
993.934	3305.5
994.154	3251.5
994.374	3287.5
994.594	3229.5
994.813	3211.5
995.033	3196.5
995.253	3180.5
995.473	3200.5
995.692	3113.5
995.912	3145.5
996.131	3112.5
996.351	3083.5
996.57	3068.5
996.79	3038.5
997.009	3032.5
997.228	3002.5
997.448	2972.5
997.667	2970.5
997.886	2952.5
998.105	2906.5
998.325	2858.5
998.544	2875.5
998.763	2833.5
998.982	2812.5
999.201	2816.5
999.419	2749.5
999.638	2735.5
999.857	2730.5
1000.076	2725.5
1000.295	2695.5
1000.513	2724.5
1000.732	2720.5
1000.95	2674.5
1001.169	2708.5
1001.388	2640.5
1001.606	2636.5
1001.824	2642.5
1002.043	2634.5
1002.261	2627.5
1002.479	2621.5
1002.698	2606.5
1002.916	2598.5
1003.134	2602.5
1003.352	2586.5
1003.57	2599.5
1003.788	2575.5
1004.006	2588.5
1004.224	2598.5
1004.442	2569.5
1004.66	2547.5
1004.878	2545.5
1005.095	2518.5
1005.313	2519.5
1005.531	2513.5
1005.748	2497.5
1005.966	2583.5
1006.184	2459.5
1006.401	2495.5
1006.618	2464.5
1006.836	2460.5
1007.053	2428.5
1007.271	2499.5
1007.488	2452.5
1007.705	2496.5
1007.922	2468.5
1008.139	2421.5
1008.357	2457.5
1008.574	2465.5
1008.791	2522.5
1009.008	2553.5
1009.225	2559.5
1009.441	2624.5
1009.658	2560.5
1009.875	2628.5
1010.092	2624.5
1010.309	2599.5
1010.525	2559.5
1010.742	2523.5
1010.958	2458.5
1011.175	2509.5
1011.391	2468.5
1011.608	2463.5
1011.824	2415.5
1012.041	2383.5
1012.257	2340.5
1012.473	2338.5
1012.689	2337.5
1012.906	2318.5
1013.122	2322.5
1013.338	2324.5
1013.554	2355.5
1013.77	2352.5
1013.986	2342.5
1014.202	2383.5
1014.418	2450.5
1014.634	2532.5
1014.849	2542.5
1015.065	2607.5
1015.281	2605.5
1015.496	2590.5
1015.712	2562.5
1015.928	2507.5
1016.143	2435.5
1016.359	2381.5
1016.574	2300.5
1016.79	2251.5
1017.005	2270.5
1017.22	2166.5
1017.435	2112.5
1017.651	2068.5
1017.866	2062.5
1018.081	2004.5
1018.296	1975.5
1018.511	1955.5
1018.726	1933.5
1018.941	1953.5
1019.156	1881.5
1019.371	1861.5
1019.586	1919.5
1019.801	1883.5
1020.015	1883.5
1020.23	1876.5
1020.445	1838.5
1020.659	1790.5
1020.874	1804.5
1021.088	1763.5
1021.303	1727.5
1021.517	1714.5
1021.732	1647.5
1021.946	1610.5
1022.16	1606.5
1022.375	1602.5
1022.589	1565.5
1022.803	1562.5
1023.017	1526.5
1023.231	1455.5
1023.445	1479.5
1023.659	1383.5
1023.873	1405.5
1024.087	1358.5
1024.301	1335.5
1024.515	1323.5
1024.729	1318.5
1024.942	1269.5
1025.156	1277.5
1025.37	1239.5
1025.583	1221.5
1025.797	1189.5
1026.01	1167.5
1026.224	1135.5
1026.437	1096.5
1026.651	1086.5
1026.864	1070.5
1027.077	1051.5
1027.291	995.5
1027.504	988.5
1027.717	961.5
1027.93	908.5
1028.143	938.5
1028.356	910.5
1028.569	828.5
1028.782	789.5
1028.995	-4.5
1029.208	-4.5
1029.421	-2.5
1029.634	0.5
