Data from QEP037381__452__15-55-44-075.txt Node

Date: Mon Mar 14 15:55:44 EDT 2022
User: dcclab
Spectrometer: QEP03738
Trigger mode: 4
Integration Time (sec): 2.500000E0
Scans to average: 1
Electric dark correction enabled: true
Nonlinearity correction enabled: false
Boxcar width: 0
XAxis mode: Wavelengths
Number of Pixels in Spectrum: 1044
>>>>>Begin Spectral Data<<<<<
783.959	12.5
784.218	2.5
784.476	-2.5
784.734	-5.5
784.992	243.5
785.251	236.5
785.509	244.5
785.767	213.5
786.025	221.5
786.283	229.5
786.541	222.5
786.798	229.5
787.056	213.5
787.314	194.5
787.572	218.5
787.83	209.5
788.087	217.5
788.345	218.5
788.602	204.5
788.86	226.5
789.117	229.5
789.375	209.5
789.632	213.5
789.89	215.5
790.147	220.5
790.404	228.5
790.661	227.5
790.919	241.5
791.176	234.5
791.433	243.5
791.69	244.5
791.947	246.5
792.204	227.5
792.461	243.5
792.718	263.5
792.974	263.5
793.231	269.5
793.488	299.5
793.745	276.5
794.001	295.5
794.258	312.5
794.514	315.5
794.771	338.5
795.027	350.5
795.284	350.5
795.54	389.5
795.797	385.5
796.053	447.5
796.309	459.5
796.565	503.5
796.822	558.5
797.078	625.5
797.334	729.5
797.59	856.5
797.846	1048.5
798.102	1375.5
798.358	1790.5
798.614	2567.5
798.869	3706.5
799.125	5541.5
799.381	8044.5
799.637	11461.5
799.892	15624.5
800.148	20134.5
800.403	24488.5
800.659	28025.5
800.914	30994.5
801.17	32999.5
801.425	34307.5
801.68	35300.5
801.936	35971.5
802.191	36863.5
802.446	37642.5
802.701	38631.5
802.957	39228.5
803.212	40180.5
803.467	40942.5
803.722	41736.5
803.977	42557.5
804.232	43389.5
804.486	44273.5
804.741	45152.5
804.996	45955.5
805.251	46901.5
805.505	47497.5
805.76	48373.5
806.015	49238.5
806.269	49627.5
806.524	50486.5
806.778	50911.5
807.033	51406.5
807.287	51962.5
807.541	52758.5
807.796	53394.5
808.05	54078.5
808.304	54531.5
808.558	54974.5
808.812	55461.5
809.066	55833.5
809.32	56130.5
809.574	56501.5
809.828	56979.5
810.082	57258.5
810.336	57587.5
810.59	58237.5
810.844	59160.5
811.097	59878.5
811.351	60629.5
811.605	61707.5
811.858	62586.5
812.112	63743.5
812.365	64787.5
812.619	65711.5
812.872	66681.5
813.126	67606.5
813.379	68628.5
813.632	69447.5
813.885	70371.5
814.139	71504.5
814.392	72548.5
814.645	73982.5
814.898	75255.5
815.151	76619.5
815.404	77840.5
815.657	79347.5
815.91	80602.5
816.163	81620.5
816.416	82619.5
816.668	82854.5
816.921	83495.5
817.174	83733.5
817.426	83637.5
817.679	83596.5
817.931	83537.5
818.184	83711.5
818.436	83701.5
818.689	83919.5
818.941	83888.5
819.194	84487.5
819.446	84776.5
819.698	84922.5
819.95	85429.5
820.202	85904.5
820.455	86003.5
820.707	86558.5
820.959	86436.5
821.211	86232.5
821.462	86166.5
821.714	86233.5
821.966	85758.5
822.218	85450.5
822.47	84948.5
822.722	84744.5
822.973	84483.5
823.225	84360.5
823.476	83952.5
823.728	84149.5
823.979	84099.5
824.231	84221.5
824.482	84324.5
824.734	84229.5
824.985	84168.5
825.236	84190.5
825.487	83982.5
825.739	83759.5
825.99	83276.5
826.241	83239.5
826.492	82421.5
826.743	82247.5
826.994	81874.5
827.245	81701.5
827.496	81579.5
827.747	81274.5
827.997	81405.5
828.248	81625.5
828.499	81639.5
828.75	81428.5
829	81651.5
829.251	81583.5
829.501	81392.5
829.752	81080.5
830.002	80650.5
830.253	80239.5
830.503	79723.5
830.753	79458.5
831.004	78931.5
831.254	78573.5
831.504	78419.5
831.754	78054.5
832.004	78181.5
832.254	78149.5
832.504	78461.5
832.754	78369.5
833.004	78260.5
833.254	78029.5
833.504	77667.5
833.754	77753.5
834.003	77448.5
834.253	77212.5
834.503	76723.5
834.752	76154.5
835.002	75895.5
835.252	75406.5
835.501	75123.5
835.75	74955.5
836	74938.5
836.249	74856.5
836.499	74758.5
836.748	74826.5
836.997	74870.5
837.246	75008.5
837.495	75392.5
837.744	75771.5
837.993	76892.5
838.242	77385.5
838.491	76868.5
838.74	75866.5
838.989	74777.5
839.238	73844.5
839.487	73155.5
839.736	72690.5
839.984	72355.5
840.233	72064.5
840.482	71458.5
840.73	71363.5
840.979	71118.5
841.227	71058.5
841.476	70535.5
841.724	70305.5
841.972	70266.5
842.221	70135.5
842.469	69824.5
842.717	69298.5
842.965	69267.5
843.213	68956.5
843.461	68678.5
843.71	68677.5
843.958	68302.5
844.205	68112.5
844.453	68275.5
844.701	68063.5
844.949	67961.5
845.197	67761.5
845.445	67953.5
845.692	68137.5
845.94	68000.5
846.188	67876.5
846.435	67854.5
846.683	67684.5
846.93	67276.5
847.178	67034.5
847.425	66271.5
847.672	65957.5
847.92	65483.5
848.167	64883.5
848.414	64528.5
848.661	63805.5
848.908	63661.5
849.155	63291.5
849.402	63561.5
849.649	63641.5
849.896	63934.5
850.143	64215.5
850.39	64655.5
850.637	64563.5
850.884	64494.5
851.131	64250.5
851.377	63998.5
851.624	63763.5
851.87	63595.5
852.117	63427.5
852.364	62740.5
852.61	62655.5
852.856	62422.5
853.103	62217.5
853.349	61905.5
853.595	61835.5
853.842	61549.5
854.088	61276.5
854.334	61442.5
854.58	61079.5
854.826	60872.5
855.072	60285.5
855.318	59877.5
855.564	59304.5
855.81	58831.5
856.056	58405.5
856.302	57939.5
856.548	57672.5
856.793	57224.5
857.039	56885.5
857.285	56636.5
857.53	56738.5
857.776	56704.5
858.021	56846.5
858.267	56997.5
858.512	57165.5
858.758	57274.5
859.003	57397.5
859.248	57337.5
859.493	57325.5
859.739	57001.5
859.984	56915.5
860.229	56768.5
860.474	56222.5
860.719	55874.5
860.964	55410.5
861.209	55052.5
861.454	54648.5
861.699	54762.5
861.943	54301.5
862.188	54168.5
862.433	53756.5
862.678	53650.5
862.922	53358.5
863.167	53333.5
863.411	53163.5
863.656	53015.5
863.9	52919.5
864.145	52493.5
864.389	52324.5
864.634	52072.5
864.878	52034.5
865.122	51737.5
865.366	51811.5
865.61	51388.5
865.855	51419.5
866.099	51205.5
866.343	51233.5
866.587	51161.5
866.831	51116.5
867.074	50962.5
867.318	50998.5
867.562	51074.5
867.806	51086.5
868.05	50958.5
868.293	50722.5
868.537	50567.5
868.78	50425.5
869.024	50170.5
869.267	49677.5
869.511	49292.5
869.754	49043.5
869.998	48565.5
870.241	48004.5
870.484	47825.5
870.728	47367.5
870.971	47003.5
871.214	46974.5
871.457	46977.5
871.7	46855.5
871.943	46912.5
872.186	46824.5
872.429	46995.5
872.672	46971.5
872.915	46817.5
873.158	46798.5
873.4	46802.5
873.643	46541.5
873.886	46337.5
874.128	46269.5
874.371	46091.5
874.613	45948.5
874.856	45744.5
875.098	45599.5
875.341	45612.5
875.583	45405.5
875.825	45131.5
876.068	45006.5
876.31	44680.5
876.552	44334.5
876.794	43883.5
877.036	43631.5
877.278	43157.5
877.52	43213.5
877.762	42883.5
878.004	42774.5
878.246	42556.5
878.488	42628.5
878.73	42568.5
878.972	42588.5
879.213	42502.5
879.455	42381.5
879.697	42377.5
879.938	42110.5
880.18	42189.5
880.421	41881.5
880.663	41987.5
880.904	41894.5
881.145	42036.5
881.387	42223.5
881.628	42169.5
881.869	41737.5
882.11	41637.5
882.352	41275.5
882.593	41246.5
882.834	41141.5
883.075	40913.5
883.316	40694.5
883.557	40498.5
883.797	40299.5
884.038	40029.5
884.279	39667.5
884.52	39246.5
884.761	38802.5
885.001	38438.5
885.242	38076.5
885.482	37870.5
885.723	37499.5
885.963	37452.5
886.204	37417.5
886.444	37227.5
886.685	37103.5
886.925	36825.5
887.165	36621.5
887.405	36484.5
887.646	36472.5
887.886	36256.5
888.126	36043.5
888.366	36186.5
888.606	36168.5
888.846	36276.5
889.086	36298.5
889.326	36368.5
889.565	36305.5
889.805	36111.5
890.045	36138.5
890.285	35862.5
890.524	35837.5
890.764	35649.5
891.003	35331.5
891.243	34926.5
891.482	34648.5
891.722	34421.5
891.961	34238.5
892.201	34081.5
892.44	33705.5
892.679	33501.5
892.918	33515.5
893.158	33427.5
893.397	33322.5
893.636	33104.5
893.875	32956.5
894.114	32743.5
894.353	32725.5
894.592	32728.5
894.831	32471.5
895.069	32357.5
895.308	32233.5
895.547	31981.5
895.786	31806.5
896.024	31743.5
896.263	31575.5
896.501	31471.5
896.74	31526.5
896.978	31438.5
897.217	31294.5
897.455	31250.5
897.694	31022.5
897.932	30990.5
898.17	30954.5
898.408	30871.5
898.646	30624.5
898.885	30582.5
899.123	30361.5
899.361	30231.5
899.599	30091.5
899.837	29762.5
900.075	29625.5
900.312	29370.5
900.55	29147.5
900.788	28818.5
901.026	28493.5
901.263	28290.5
901.501	28113.5
901.739	27921.5
901.976	27833.5
902.214	27695.5
902.451	27447.5
902.689	27533.5
902.926	27374.5
903.163	27383.5
903.401	27416.5
903.638	27401.5
903.875	27493.5
904.112	27348.5
904.349	27394.5
904.586	27183.5
904.823	27048.5
905.06	26965.5
905.297	26629.5
905.534	26484.5
905.771	26317.5
906.008	26149.5
906.245	25871.5
906.481	25716.5
906.718	25533.5
906.955	25575.5
907.191	25450.5
907.428	25285.5
907.664	25151.5
907.901	25171.5
908.137	25053.5
908.374	24938.5
908.61	24860.5
908.846	24708.5
909.083	24532.5
909.319	24326.5
909.555	24204.5
909.791	24118.5
910.027	23801.5
910.263	23562.5
910.499	23470.5
910.735	23243.5
910.971	23116.5
911.207	22989.5
911.443	22910.5
911.678	22672.5
911.914	22654.5
912.15	22636.5
912.385	22592.5
912.621	22532.5
912.857	22565.5
913.092	22494.5
913.328	22448.5
913.563	22365.5
913.798	22285.5
914.034	22335.5
914.269	22244.5
914.504	22190.5
914.739	22170.5
914.975	21956.5
915.21	21724.5
915.445	21634.5
915.68	21464.5
915.915	21234.5
916.15	20899.5
916.384	20675.5
916.619	20440.5
916.854	20314.5
917.089	20281.5
917.324	20212.5
917.558	19859.5
917.793	19764.5
918.028	19603.5
918.262	19734.5
918.497	19636.5
918.731	19586.5
918.965	19584.5
919.2	19582.5
919.434	19451.5
919.668	19501.5
919.903	19330.5
920.137	19272.5
920.371	19127.5
920.605	19093.5
920.839	18948.5
921.073	18756.5
921.307	18638.5
921.541	18448.5
921.775	18442.5
922.009	18287.5
922.243	18224.5
922.476	18186.5
922.71	18312.5
922.944	18178.5
923.177	18178.5
923.411	18088.5
923.644	18014.5
923.878	17938.5
924.111	17846.5
924.345	17803.5
924.578	17767.5
924.811	17629.5
925.045	17471.5
925.278	17437.5
925.511	17337.5
925.744	17143.5
925.977	16990.5
926.21	16795.5
926.443	16685.5
926.676	16633.5
926.909	16543.5
927.142	16433.5
927.375	16206.5
927.608	16059.5
927.841	16044.5
928.073	15954.5
928.306	15921.5
928.539	15869.5
928.771	15874.5
929.004	15913.5
929.236	15839.5
929.469	15836.5
929.701	15878.5
929.933	15815.5
930.166	15828.5
930.398	15704.5
930.63	15679.5
930.862	15671.5
931.094	15650.5
931.327	15393.5
931.559	15341.5
931.791	15262.5
932.023	15145.5
932.255	15066.5
932.486	14893.5
932.718	14806.5
932.95	14675.5
933.182	14613.5
933.413	14517.5
933.645	14540.5
933.877	14494.5
934.108	14459.5
934.34	14343.5
934.571	14218.5
934.803	14138.5
935.034	14135.5
935.265	14062.5
935.497	13969.5
935.728	13928.5
935.959	13895.5
936.19	13824.5
936.422	13703.5
936.653	13620.5
936.884	13557.5
937.115	13416.5
937.346	13355.5
937.577	13411.5
937.807	13232.5
938.038	13123.5
938.269	13092.5
938.5	13101.5
938.73	13034.5
938.961	13013.5
939.192	13064.5
939.422	13007.5
939.653	12931.5
939.883	12913.5
940.114	12931.5
940.344	12764.5
940.574	12758.5
940.805	12717.5
941.035	12575.5
941.265	12455.5
941.495	12430.5
941.726	12278.5
941.956	12322.5
942.186	12147.5
942.416	12053.5
942.646	11868.5
942.876	11802.5
943.105	11769.5
943.335	11627.5
943.565	11574.5
943.795	11406.5
944.024	11351.5
944.254	11264.5
944.484	11220.5
944.713	11080.5
944.943	11076.5
945.172	11061.5
945.402	11020.5
945.631	10984.5
945.86	10885.5
946.09	10910.5
946.319	10856.5
946.548	10784.5
946.777	10784.5
947.006	10778.5
947.235	10731.5
947.465	10721.5
947.694	10546.5
947.922	10513.5
948.151	10331.5
948.38	10303.5
948.609	10168.5
948.838	10251.5
949.067	10091.5
949.295	10020.5
949.524	9995.5
949.752	9884.5
949.981	9858.5
950.21	9791.5
950.438	9701.5
950.666	9701.5
950.895	9525.5
951.123	9505.5
951.351	9428.5
951.58	9396.5
951.808	9313.5
952.036	9294.5
952.264	9208.5
952.492	9099.5
952.72	9152.5
952.948	9085.5
953.176	8972.5
953.404	8956.5
953.632	8822.5
953.86	8807.5
954.088	8692.5
954.315	8601.5
954.543	8557.5
954.771	8547.5
954.998	8494.5
955.226	8410.5
955.453	8426.5
955.681	8391.5
955.908	8328.5
956.135	8313.5
956.363	8314.5
956.59	8327.5
956.817	8280.5
957.045	8186.5
957.272	8167.5
957.499	8126.5
957.726	8083.5
957.953	8097.5
958.18	8023.5
958.407	8012.5
958.634	7934.5
958.861	7891.5
959.087	7851.5
959.314	7796.5
959.541	7658.5
959.767	7725.5
959.994	7657.5
960.221	7498.5
960.447	7485.5
960.674	7437.5
960.9	7363.5
961.127	7353.5
961.353	7281.5
961.579	7234.5
961.806	7223.5
962.032	7094.5
962.258	7135.5
962.484	7101.5
962.71	7053.5
962.936	7022.5
963.162	6950.5
963.388	6979.5
963.614	6908.5
963.84	6903.5
964.066	6939.5
964.292	6923.5
964.518	6905.5
964.743	6808.5
964.969	6811.5
965.195	6752.5
965.42	6683.5
965.646	6628.5
965.871	6653.5
966.097	6621.5
966.322	6567.5
966.547	6496.5
966.773	6517.5
966.998	6448.5
967.223	6412.5
967.448	6366.5
967.674	6353.5
967.899	6270.5
968.124	6272.5
968.349	6276.5
968.574	6188.5
968.799	6165.5
969.024	6100.5
969.248	6125.5
969.473	6074.5
969.698	5972.5
969.923	5997.5
970.147	5983.5
970.372	5915.5
970.596	5900.5
970.821	5824.5
971.046	5870.5
971.27	5816.5
971.494	5739.5
971.719	5644.5
971.943	5633.5
972.167	5604.5
972.392	5599.5
972.616	5590.5
972.84	5541.5
973.064	5460.5
973.288	5441.5
973.512	5438.5
973.736	5412.5
973.96	5370.5
974.184	5353.5
974.408	5341.5
974.631	5324.5
974.855	5325.5
975.079	5252.5
975.303	5243.5
975.526	5274.5
975.75	5196.5
975.973	5169.5
976.197	5161.5
976.42	5123.5
976.644	5108.5
976.867	5017.5
977.09	5067.5
977.313	4980.5
977.537	4962.5
977.76	4892.5
977.983	4921.5
978.206	4866.5
978.429	4876.5
978.652	4876.5
978.875	4757.5
979.098	4748.5
979.321	4723.5
979.544	4681.5
979.767	4629.5
979.989	4612.5
980.212	4529.5
980.435	4567.5
980.657	4518.5
980.88	4523.5
981.102	4511.5
981.325	4479.5
981.547	4407.5
981.77	4458.5
981.992	4414.5
982.214	4372.5
982.437	4347.5
982.659	4303.5
982.881	4285.5
983.103	4321.5
983.325	4293.5
983.547	4228.5
983.769	4265.5
983.991	4218.5
984.213	4194.5
984.435	4211.5
984.657	4163.5
984.879	4143.5
985.1	4142.5
985.322	4057.5
985.544	4013.5
985.765	4042.5
985.987	4031.5
986.208	4012.5
986.43	3988.5
986.651	3966.5
986.873	3973.5
987.094	3929.5
987.315	3875.5
987.536	3841.5
987.758	3857.5
987.979	3811.5
988.2	3818.5
988.421	3779.5
988.642	3728.5
988.863	3723.5
989.084	3675.5
989.305	3683.5
989.526	3633.5
989.747	3586.5
989.967	3618.5
990.188	3547.5
990.409	3527.5
990.629	3523.5
990.85	3501.5
991.071	3473.5
991.291	3477.5
991.512	3435.5
991.732	3435.5
991.952	3436.5
992.173	3418.5
992.393	3416.5
992.613	3396.5
992.834	3408.5
993.054	3387.5
993.274	3335.5
993.494	3354.5
993.714	3350.5
993.934	3341.5
994.154	3362.5
994.374	3316.5
994.594	3297.5
994.813	3282.5
995.033	3272.5
995.253	3288.5
995.473	3281.5
995.692	3175.5
995.912	3205.5
996.131	3182.5
996.351	3169.5
996.57	3112.5
996.79	3108.5
997.009	3057.5
997.228	3040.5
997.448	3034.5
997.667	2972.5
997.886	2928.5
998.105	2930.5
998.325	2878.5
998.544	2915.5
998.763	2877.5
998.982	2887.5
999.201	2819.5
999.419	2827.5
999.638	2815.5
999.857	2776.5
1000.076	2747.5
1000.295	2770.5
1000.513	2783.5
1000.732	2728.5
1000.95	2700.5
1001.169	2749.5
1001.388	2734.5
1001.606	2700.5
1001.824	2658.5
1002.043	2657.5
1002.261	2669.5
1002.479	2672.5
1002.698	2622.5
1002.916	2651.5
1003.134	2657.5
1003.352	2627.5
1003.57	2607.5
1003.788	2653.5
1004.006	2558.5
1004.224	2606.5
1004.442	2562.5
1004.66	2595.5
1004.878	2562.5
1005.095	2553.5
1005.313	2599.5
1005.531	2517.5
1005.748	2555.5
1005.966	2570.5
1006.184	2529.5
1006.401	2534.5
1006.618	2499.5
1006.836	2483.5
1007.053	2507.5
1007.271	2499.5
1007.488	2485.5
1007.705	2473.5
1007.922	2524.5
1008.139	2473.5
1008.357	2549.5
1008.574	2505.5
1008.791	2538.5
1009.008	2598.5
1009.225	2577.5
1009.441	2618.5
1009.658	2622.5
1009.875	2650.5
1010.092	2622.5
1010.309	2659.5
1010.525	2565.5
1010.742	2572.5
1010.958	2530.5
1011.175	2551.5
1011.391	2505.5
1011.608	2503.5
1011.824	2472.5
1012.041	2445.5
1012.257	2433.5
1012.473	2417.5
1012.689	2367.5
1012.906	2397.5
1013.122	2388.5
1013.338	2358.5
1013.554	2371.5
1013.77	2352.5
1013.986	2389.5
1014.202	2426.5
1014.418	2458.5
1014.634	2543.5
1014.849	2600.5
1015.065	2620.5
1015.281	2613.5
1015.496	2599.5
1015.712	2604.5
1015.928	2552.5
1016.143	2455.5
1016.359	2461.5
1016.574	2335.5
1016.79	2283.5
1017.005	2281.5
1017.22	2212.5
1017.435	2130.5
1017.651	2097.5
1017.866	2039.5
1018.081	1991.5
1018.296	1999.5
1018.511	1965.5
1018.726	1953.5
1018.941	1947.5
1019.156	1953.5
1019.371	1936.5
1019.586	1932.5
1019.801	1905.5
1020.015	1900.5
1020.23	1874.5
1020.445	1857.5
1020.659	1830.5
1020.874	1804.5
1021.088	1779.5
1021.303	1742.5
1021.517	1717.5
1021.732	1695.5
1021.946	1654.5
1022.16	1671.5
1022.375	1633.5
1022.589	1576.5
1022.803	1551.5
1023.017	1537.5
1023.231	1530.5
1023.445	1504.5
1023.659	1414.5
1023.873	1408.5
1024.087	1371.5
1024.301	1368.5
1024.515	1353.5
1024.729	1346.5
1024.942	1278.5
1025.156	1295.5
1025.37	1257.5
1025.583	1226.5
1025.797	1210.5
1026.01	1198.5
1026.224	1168.5
1026.437	1135.5
1026.651	1129.5
1026.864	1077.5
1027.077	1069.5
1027.291	1029.5
1027.504	988.5
1027.717	976.5
1027.93	919.5
1028.143	938.5
1028.356	899.5
1028.569	851.5
1028.782	800.5
1028.995	-3.5
1029.208	-2.5
1029.421	-0.5
1029.634	-0.5
