Data from QEP037381__478__16-00-21-578.txt Node

Date: Mon Mar 14 16:00:21 EDT 2022
User: dcclab
Spectrometer: QEP03738
Trigger mode: 4
Integration Time (sec): 2.500000E0
Scans to average: 1
Electric dark correction enabled: true
Nonlinearity correction enabled: false
Boxcar width: 0
XAxis mode: Wavelengths
Number of Pixels in Spectrum: 1044
>>>>>Begin Spectral Data<<<<<
783.959	15
784.218	0
784.476	-3
784.734	-3
784.992	247
785.251	230
785.509	231
785.767	235
786.025	235
786.283	229
786.541	226
786.798	239
787.056	232
787.314	211
787.572	230
787.83	219
788.087	232
788.345	232
788.602	238
788.86	220
789.117	230
789.375	214
789.632	230
789.89	230
790.147	236
790.404	231
790.661	240
790.919	256
791.176	245
791.433	247
791.69	256
791.947	268
792.204	250
792.461	266
792.718	267
792.974	265
793.231	280
793.488	303
793.745	311
794.001	318
794.258	346
794.514	327
794.771	357
795.027	359
795.284	372
795.54	416
795.797	423
796.053	465
796.309	500
796.565	552
796.822	604
797.078	673
797.334	779
797.59	923
797.846	1163
798.102	1456
798.358	1938
798.614	2797
798.869	4121
799.125	6101
799.381	8766
799.637	12491
799.892	16965
800.148	21828
800.403	26600
800.659	30755
800.914	33822
801.17	36167
801.425	37642
801.68	38708
801.936	39509
802.191	40530
802.446	41396
802.701	42313
802.957	43075
803.212	44033
803.467	45042
803.722	45829
803.977	46777
804.232	47751
804.486	48591
804.741	49534
804.996	50657
805.251	51402
805.505	52398
805.76	53175
806.015	53996
806.269	54708
806.524	55534
806.778	55755
807.033	56339
807.287	57078
807.541	57944
807.796	58555
808.05	59326
808.304	59813
808.558	60374
808.812	60695
809.066	61162
809.32	61468
809.574	62067
809.828	62485
810.082	63023
810.336	63488
810.59	63876
810.844	64722
811.097	65698
811.351	66545
811.605	67617
811.858	68671
812.112	69758
812.365	70869
812.619	72099
812.872	73154
813.126	74048
813.379	74833
813.632	76083
813.885	77106
814.139	78247
814.392	79478
814.645	80786
814.898	82210
815.151	83561
815.404	85388
815.657	86542
815.91	87864
816.163	89067
816.416	90193
816.668	90626
816.921	91014
817.174	91232
817.426	91360
817.679	91584
817.931	91298
818.184	91414
818.436	91403
818.689	91667
818.941	91886
819.194	92157
819.446	92193
819.698	92659
819.95	93193
820.202	93429
820.455	93911
820.707	94242
820.959	94200
821.211	93922
821.462	93900
821.714	93665
821.966	93221
822.218	92995
822.47	92527
822.722	91967
822.973	91643
823.225	91482
823.476	91455
823.728	91363
823.979	91421
824.231	91487
824.482	91646
824.734	91530
824.985	91759
825.236	91557
825.487	91481
825.739	90973
825.99	90629
826.241	90447
826.492	89922
826.743	89510
826.994	89076
827.245	88766
827.496	88689
827.747	88460
827.997	88291
828.248	88442
828.499	88348
828.75	88526
829	88543
829.251	88334
829.501	88471
829.752	87851
830.002	87690
830.253	86976
830.503	86354
830.753	85838
831.004	85416
831.254	84909
831.504	85080
831.754	84740
832.004	84806
832.254	84705
832.504	84650
832.754	84778
833.004	84593
833.254	84451
833.504	84208
833.754	83946
834.003	83811
834.253	83057
834.503	82917
834.752	82336
835.002	81788
835.252	81576
835.501	81183
835.75	80772
836	80636
836.249	80730
836.499	80623
836.748	80329
836.997	80550
837.246	80702
837.495	81007
837.744	81481
837.993	81872
838.242	82001
838.491	81890
838.74	81057
838.989	80032
839.238	79148
839.487	78415
839.736	78245
839.984	77692
840.233	77393
840.482	76779
840.73	76523
840.979	76303
841.227	76104
841.476	75986
841.724	75721
841.972	75450
842.221	75107
842.469	74952
842.717	74693
842.965	74319
843.213	74151
843.461	73971
843.71	73428
843.958	73068
844.205	73191
844.453	73026
844.701	72825
844.949	72819
845.197	72635
845.445	72669
845.692	72702
845.94	72656
846.188	72730
846.435	72674
846.683	72436
846.93	72100
847.178	71832
847.425	71159
847.672	70515
847.92	69933
848.167	69334
848.414	68749
848.661	68512
848.908	67929
849.155	67673
849.402	67744
849.649	67869
849.896	68231
850.143	68428
850.39	68786
850.637	68593
850.884	68653
851.131	68557
851.377	68321
851.624	67937
851.87	67680
852.117	67509
852.364	67139
852.61	66915
852.856	66582
853.103	66162
853.349	66084
853.595	65837
853.842	65502
854.088	65358
854.334	65353
854.58	65209
854.826	64788
855.072	64414
855.318	63874
855.564	63133
855.81	62843
856.056	62196
856.302	61575
856.548	61150
856.793	61113
857.039	60520
857.285	60431
857.53	60429
857.776	60489
858.021	60555
858.267	60863
858.512	61010
858.758	61108
859.003	61350
859.248	61124
859.493	60900
859.739	60822
859.984	60607
860.229	60498
860.474	59726
860.719	59654
860.964	59215
861.209	58803
861.454	58489
861.699	58145
861.943	57781
862.188	57419
862.433	57317
862.678	57060
862.922	57012
863.167	56692
863.411	56802
863.656	56516
863.9	56491
864.145	56166
864.389	55907
864.634	55726
864.878	55618
865.122	55407
865.366	55312
865.61	55162
865.855	54915
866.099	54930
866.343	54716
866.587	54597
866.831	54708
867.074	54580
867.318	54592
867.562	54462
867.806	54502
868.05	54315
868.293	54229
868.537	54067
868.78	53851
869.024	53782
869.267	53023
869.511	52761
869.754	52366
869.998	51883
870.241	51308
870.484	51148
870.728	50764
870.971	50550
871.214	50275
871.457	50244
871.7	50283
871.943	49967
872.186	50263
872.429	50142
872.672	50180
872.915	50221
873.158	50202
873.4	50042
873.643	49974
873.886	49737
874.128	49617
874.371	49448
874.613	49268
874.856	48990
875.098	49015
875.341	49007
875.583	48708
875.825	48653
876.068	48426
876.31	47874
876.552	47602
876.794	47235
877.036	46714
877.278	46473
877.52	46236
877.762	46134
878.004	45924
878.246	45827
878.488	45757
878.73	45831
878.972	45718
879.213	45735
879.455	45864
879.697	45597
879.938	45359
880.18	45171
880.421	44984
880.663	44924
880.904	45044
881.145	45088
881.387	45220
881.628	45048
881.869	44965
882.11	44632
882.352	44603
882.593	44441
882.834	44326
883.075	44179
883.316	44013
883.557	43912
883.797	43692
884.038	43342
884.279	42947
884.52	42444
884.761	42014
885.001	41745
885.242	41289
885.482	41100
885.723	40862
885.963	40665
886.204	40451
886.444	40261
886.685	40166
886.925	39913
887.165	39888
887.405	39672
887.646	39531
887.886	39436
888.126	39342
888.366	39461
888.606	39542
888.846	39680
889.086	39656
889.326	39467
889.565	39632
889.805	39434
890.045	39183
890.285	39253
890.524	39243
890.764	38731
891.003	38531
891.243	38291
891.482	37888
891.722	37756
891.961	37426
892.201	37248
892.44	36980
892.679	36923
892.918	36793
893.158	36652
893.397	36616
893.636	36341
893.875	36328
894.114	36136
894.353	36009
894.592	35823
894.831	35726
895.069	35473
895.308	35280
895.547	35115
895.786	34934
896.024	34785
896.263	34693
896.501	34606
896.74	34718
896.978	34378
897.217	34462
897.455	34456
897.694	34328
897.932	34094
898.17	34085
898.408	34019
898.646	33772
898.885	33681
899.123	33400
899.361	33184
899.599	32990
899.837	32874
900.075	32756
900.312	32443
900.55	32129
900.788	31807
901.026	31599
901.263	31287
901.501	31026
901.739	30880
901.976	30828
902.214	30715
902.451	30541
902.689	30555
902.926	30492
903.163	30414
903.401	30473
903.638	30522
903.875	30350
904.112	30353
904.349	30084
904.586	30176
904.823	30091
905.06	29831
905.297	29725
905.534	29559
905.771	29304
906.008	29049
906.245	28818
906.481	28650
906.718	28403
906.955	28374
907.191	28135
907.428	28176
907.664	28185
907.901	27972
908.137	27774
908.374	27723
908.61	27608
908.846	27458
909.083	27370
909.319	27181
909.555	26945
909.791	26734
910.027	26529
910.263	26279
910.499	26153
910.735	25978
910.971	25722
911.207	25536
911.443	25414
911.678	25236
911.914	25298
912.15	25245
912.385	25300
912.621	25232
912.857	25116
913.092	24981
913.328	25122
913.563	25038
913.798	25054
914.034	24898
914.269	24874
914.504	24707
914.739	24706
914.975	24381
915.21	24277
915.445	24095
915.68	23957
915.915	23774
916.15	23503
916.384	23184
916.619	23069
916.854	22943
917.089	22662
917.324	22679
917.558	22330
917.793	22261
918.028	22137
918.262	22144
918.497	22151
918.731	22014
918.965	22087
919.2	22002
919.434	21901
919.668	21874
919.903	21828
920.137	21825
920.371	21604
920.605	21497
920.839	21407
921.073	21204
921.307	21063
921.541	20840
921.775	20790
922.009	20660
922.243	20596
922.476	20560
922.71	20567
922.944	20601
923.177	20532
923.411	20424
923.644	20426
923.878	20365
924.111	20245
924.345	20079
924.578	20123
924.811	19897
925.045	19851
925.278	19733
925.511	19591
925.744	19416
925.977	19320
926.21	19027
926.443	19000
926.676	18881
926.909	18752
927.142	18592
927.375	18440
927.608	18326
927.841	18149
928.073	18208
928.306	18045
928.539	18091
928.771	18067
929.004	18086
929.236	18075
929.469	18041
929.701	18065
929.933	18041
930.166	18063
930.398	17921
930.63	17903
930.862	17798
931.094	17684
931.327	17724
931.559	17586
931.791	17427
932.023	17304
932.255	17280
932.486	17093
932.718	16986
932.95	16838
933.182	16843
933.413	16644
933.645	16629
933.877	16504
934.108	16556
934.34	16451
934.571	16310
934.803	16262
935.034	16140
935.265	16129
935.497	16158
935.728	16018
935.959	15953
936.19	15873
936.422	15799
936.653	15660
936.884	15625
937.115	15584
937.346	15349
937.577	15408
937.807	15214
938.038	15195
938.269	15136
938.5	15074
938.73	15096
938.961	15080
939.192	15032
939.422	15053
939.653	15049
939.883	14935
940.114	14831
940.344	14834
940.574	14803
940.805	14690
941.035	14550
941.265	14493
941.495	14412
941.726	14306
941.956	14290
942.186	14144
942.416	13983
942.646	13901
942.876	13747
943.105	13673
943.335	13521
943.565	13454
943.795	13367
944.024	13273
944.254	13172
944.484	13053
944.713	13041
944.943	12908
945.172	12949
945.402	12931
945.631	12832
945.86	12854
946.09	12891
946.319	12826
946.548	12702
946.777	12782
947.006	12648
947.235	12626
947.465	12594
947.694	12525
947.922	12336
948.151	12339
948.38	12222
948.609	12148
948.838	12076
949.067	12060
949.295	11789
949.524	11810
949.752	11722
949.981	11678
950.21	11552
950.438	11526
950.666	11460
950.895	11323
951.123	11340
951.351	11248
951.58	11196
951.808	11084
952.036	11095
952.264	11005
952.492	11015
952.72	10896
952.948	10865
953.176	10704
953.404	10683
953.632	10654
953.86	10492
954.088	10394
954.315	10389
954.543	10290
954.771	10187
954.998	10175
955.226	10189
955.453	10149
955.681	10014
955.908	10081
956.135	9995
956.363	9994
956.59	9940
956.817	9985
957.045	9883
957.272	9834
957.499	9861
957.726	9813
957.953	9699
958.18	9646
958.407	9603
958.634	9663
958.861	9518
959.087	9486
959.314	9379
959.541	9364
959.767	9235
959.994	9211
960.221	9125
960.447	8983
960.674	8952
960.9	8852
961.127	8809
961.353	8775
961.579	8699
961.806	8685
962.032	8627
962.258	8613
962.484	8481
962.71	8518
962.936	8537
963.162	8498
963.388	8467
963.614	8430
963.84	8389
964.066	8440
964.292	8378
964.518	8318
964.743	8294
964.969	8248
965.195	8225
965.42	8146
965.646	8055
965.871	8044
966.097	8051
966.322	7936
966.547	7983
966.773	7918
966.998	7852
967.223	7859
967.448	7807
967.674	7728
967.899	7682
968.124	7575
968.349	7623
968.574	7582
968.799	7535
969.024	7430
969.248	7427
969.473	7405
969.698	7370
969.923	7296
970.147	7321
970.372	7208
970.596	7163
970.821	7163
971.046	7078
971.27	7077
971.494	7002
971.719	7005
971.943	6870
972.167	6848
972.392	6761
972.616	6761
972.84	6708
973.064	6710
973.288	6675
973.512	6668
973.736	6623
973.96	6614
974.184	6576
974.408	6540
974.631	6520
974.855	6504
975.079	6485
975.303	6438
975.526	6437
975.75	6390
975.973	6351
976.197	6311
976.42	6363
976.644	6241
976.867	6226
977.09	6182
977.313	6174
977.537	6106
977.76	6003
977.983	6027
978.206	5967
978.429	5921
978.652	5913
978.875	5872
979.098	5842
979.321	5869
979.544	5749
979.767	5691
979.989	5702
980.212	5661
980.435	5602
980.657	5552
980.88	5514
981.102	5518
981.325	5498
981.547	5452
981.77	5403
981.992	5384
982.214	5385
982.437	5304
982.659	5305
982.881	5333
983.103	5288
983.325	5308
983.547	5235
983.769	5215
983.991	5197
984.213	5231
984.435	5171
984.657	5152
984.879	5115
985.1	5086
985.322	5038
985.544	5020
985.765	4997
985.987	4995
986.208	4920
986.43	4902
986.651	4888
986.873	4839
987.094	4812
987.315	4802
987.536	4761
987.758	4727
987.979	4715
988.2	4667
988.421	4676
988.642	4631
988.863	4578
989.084	4542
989.305	4538
989.526	4485
989.747	4481
989.967	4445
990.188	4443
990.409	4394
990.629	4315
990.85	4401
991.071	4288
991.291	4293
991.512	4248
991.732	4240
991.952	4192
992.173	4188
992.393	4215
992.613	4152
992.834	4148
993.054	4122
993.274	4108
993.494	4077
993.714	4058
993.934	4104
994.154	4098
994.374	4067
994.594	4020
994.813	3970
995.033	3986
995.253	3957
995.473	3964
995.692	3912
995.912	3913
996.131	3865
996.351	3813
996.57	3789
996.79	3777
997.009	3742
997.228	3721
997.448	3724
997.667	3686
997.886	3611
998.105	3607
998.325	3551
998.544	3555
998.763	3521
998.982	3499
999.201	3493
999.419	3451
999.638	3433
999.857	3359
1000.076	3447
1000.295	3395
1000.513	3359
1000.732	3365
1000.95	3288
1001.169	3332
1001.388	3311
1001.606	3298
1001.824	3303
1002.043	3256
1002.261	3252
1002.479	3272
1002.698	3225
1002.916	3195
1003.134	3213
1003.352	3164
1003.57	3176
1003.788	3162
1004.006	3148
1004.224	3199
1004.442	3125
1004.66	3122
1004.878	3120
1005.095	3086
1005.313	3079
1005.531	3069
1005.748	3060
1005.966	3103
1006.184	3011
1006.401	2984
1006.618	2981
1006.836	3017
1007.053	2998
1007.271	2956
1007.488	2906
1007.705	2998
1007.922	2960
1008.139	2941
1008.357	2932
1008.574	2940
1008.791	2969
1009.008	3030
1009.225	3022
1009.441	3020
1009.658	3021
1009.875	3044
1010.092	3037
1010.309	3022
1010.525	2975
1010.742	2947
1010.958	2887
1011.175	2917
1011.391	2851
1011.608	2849
1011.824	2821
1012.041	2725
1012.257	2766
1012.473	2700
1012.689	2730
1012.906	2695
1013.122	2673
1013.338	2679
1013.554	2679
1013.77	2662
1013.986	2712
1014.202	2742
1014.418	2754
1014.634	2816
1014.849	2807
1015.065	2887
1015.281	2857
1015.496	2831
1015.712	2820
1015.928	2812
1016.143	2723
1016.359	2676
1016.574	2643
1016.79	2587
1017.005	2534
1017.22	2495
1017.435	2390
1017.651	2385
1017.866	2353
1018.081	2314
1018.296	2259
1018.511	2258
1018.726	2222
1018.941	2205
1019.156	2171
1019.371	2181
1019.586	2186
1019.801	2163
1020.015	2125
1020.23	2176
1020.445	2093
1020.659	2084
1020.874	2073
1021.088	2039
1021.303	1996
1021.517	1976
1021.732	1912
1021.946	1923
1022.16	1939
1022.375	1893
1022.589	1838
1022.803	1847
1023.017	1800
1023.231	1775
1023.445	1740
1023.659	1650
1023.873	1657
1024.087	1606
1024.301	1606
1024.515	1565
1024.729	1555
1024.942	1526
1025.156	1508
1025.37	1458
1025.583	1423
1025.797	1412
1026.01	1398
1026.224	1359
1026.437	1337
1026.651	1291
1026.864	1240
1027.077	1245
1027.291	1207
1027.504	1187
1027.717	1129
1027.93	1098
1028.143	1076
1028.356	1076
1028.569	990
1028.782	929
1028.995	-2
1029.208	-3
1029.421	-2
1029.634	-2
