Data from QEP037381__489__16-00-49-081.txt Node

Date: Mon Mar 14 16:00:49 EDT 2022
User: dcclab
Spectrometer: QEP03738
Trigger mode: 4
Integration Time (sec): 2.500000E0
Scans to average: 1
Electric dark correction enabled: true
Nonlinearity correction enabled: false
Boxcar width: 0
XAxis mode: Wavelengths
Number of Pixels in Spectrum: 1044
>>>>>Begin Spectral Data<<<<<
783.959	13.62
784.218	-0.38
784.476	-5.38
784.734	-4.38
784.992	249.62
785.251	236.62
785.509	240.62
785.767	223.62
786.025	217.62
786.283	238.62
786.541	237.62
786.798	225.62
787.056	221.62
787.314	203.62
787.572	227.62
787.83	232.62
788.087	223.62
788.345	232.62
788.602	229.62
788.86	231.62
789.117	237.62
789.375	227.62
789.632	232.62
789.89	221.62
790.147	242.62
790.404	244.62
790.661	241.62
790.919	249.62
791.176	249.62
791.433	253.62
791.69	254.62
791.947	249.62
792.204	251.62
792.461	257.62
792.718	268.62
792.974	276.62
793.231	287.62
793.488	331.62
793.745	291.62
794.001	312.62
794.258	351.62
794.514	344.62
794.771	360.62
795.027	370.62
795.284	380.62
795.54	439.62
795.797	427.62
796.053	474.62
796.309	510.62
796.565	554.62
796.822	604.62
797.078	680.62
797.334	791.62
797.59	928.62
797.846	1178.62
798.102	1498.62
798.358	2005.62
798.614	2886.62
798.869	4195.62
799.125	6086.62
799.381	8943.62
799.637	12706.62
799.892	17135.62
800.148	22085.62
800.403	26879.62
800.659	31001.62
800.914	34297.62
801.17	36535.62
801.425	38090.62
801.68	39248.62
801.936	39989.62
802.191	40953.62
802.446	41789.62
802.701	42672.62
802.957	43573.62
803.212	44433.62
803.467	45355.62
803.722	46166.62
803.977	46993.62
804.232	47958.62
804.486	49159.62
804.741	49951.62
804.996	50841.62
805.251	51793.62
805.505	52727.62
805.76	53702.62
806.015	54738.62
806.269	55116.62
806.524	55871.62
806.778	56381.62
807.033	56911.62
807.287	57486.62
807.541	58371.62
807.796	59137.62
808.05	60011.62
808.304	60397.62
808.558	60760.62
808.812	61153.62
809.066	61702.62
809.32	61972.62
809.574	62537.62
809.828	62918.62
810.082	63333.62
810.336	63842.62
810.59	64523.62
810.844	65308.62
811.097	66112.62
811.351	67089.62
811.605	68179.62
811.858	69171.62
812.112	70343.62
812.365	71715.62
812.619	72505.62
812.872	73716.62
813.126	74631.62
813.379	75631.62
813.632	76469.62
813.885	77597.62
814.139	78789.62
814.392	79950.62
814.645	81152.62
814.898	82860.62
815.151	84042.62
815.404	85752.62
815.657	87388.62
815.91	88593.62
816.163	89895.62
816.416	90684.62
816.668	91069.62
816.921	91669.62
817.174	91970.62
817.426	92066.62
817.679	92203.62
817.931	92149.62
818.184	91987.62
818.436	92181.62
818.689	92178.62
818.941	92457.62
819.194	92766.62
819.446	93114.62
819.698	93253.62
819.95	93861.62
820.202	94139.62
820.455	94626.62
820.707	94836.62
820.959	94993.62
821.211	94839.62
821.462	94592.62
821.714	94223.62
821.966	94108.62
822.218	93701.62
822.47	93022.62
822.722	92799.62
822.973	92670.62
823.225	92086.62
823.476	92052.62
823.728	91976.62
823.979	92072.62
824.231	92201.62
824.482	92217.62
824.734	92189.62
824.985	92544.62
825.236	92055.62
825.487	91883.62
825.739	91603.62
825.99	91367.62
826.241	91007.62
826.492	90617.62
826.743	90105.62
826.994	89757.62
827.245	89316.62
827.496	89084.62
827.747	88821.62
827.997	88853.62
828.248	89008.62
828.499	89065.62
828.75	89152.62
829	89177.62
829.251	88950.62
829.501	88880.62
829.752	88532.62
830.002	88110.62
830.253	87661.62
830.503	87066.62
830.753	86492.62
831.004	86004.62
831.254	86027.62
831.504	85442.62
831.754	85328.62
832.004	85279.62
832.254	85189.62
832.504	85374.62
832.754	85346.62
833.004	84917.62
833.254	84678.62
833.504	84807.62
833.754	84567.62
834.003	84478.62
834.253	83799.62
834.503	83469.62
834.752	82728.62
835.002	82410.62
835.252	82243.62
835.501	81609.62
835.75	81526.62
836	81429.62
836.249	81291.62
836.499	81197.62
836.748	80815.62
836.997	81002.62
837.246	81242.62
837.495	81649.62
837.744	81787.62
837.993	82246.62
838.242	82477.62
838.491	82364.62
838.74	81505.62
838.989	80431.62
839.238	79779.62
839.487	78974.62
839.736	78730.62
839.984	78230.62
840.233	77812.62
840.482	77560.62
840.73	77157.62
840.979	76898.62
841.227	76635.62
841.476	76219.62
841.724	76078.62
841.972	76004.62
842.221	75863.62
842.469	75348.62
842.717	75173.62
842.965	74793.62
843.213	74574.62
843.461	74283.62
843.71	74024.62
843.958	73748.62
844.205	73646.62
844.453	73521.62
844.701	73306.62
844.949	73329.62
845.197	73161.62
845.445	73234.62
845.692	73320.62
845.94	73450.62
846.188	73348.62
846.435	73393.62
846.683	72915.62
846.93	72623.62
847.178	72160.62
847.425	71654.62
847.672	70899.62
847.92	70461.62
848.167	69941.62
848.414	69272.62
848.661	68987.62
848.908	68464.62
849.155	68272.62
849.402	68052.62
849.649	68225.62
849.896	68446.62
850.143	68777.62
850.39	69203.62
850.637	69360.62
850.884	69163.62
851.131	68917.62
851.377	68750.62
851.624	68586.62
851.87	68220.62
852.117	67846.62
852.364	67495.62
852.61	67392.62
852.856	67143.62
853.103	66799.62
853.349	66542.62
853.595	66272.62
853.842	65901.62
854.088	65605.62
854.334	65874.62
854.58	65744.62
854.826	65262.62
855.072	64786.62
855.318	64554.62
855.564	63643.62
855.81	63376.62
856.056	62695.62
856.302	62048.62
856.548	61546.62
856.793	61317.62
857.039	61026.62
857.285	60883.62
857.53	60931.62
857.776	61122.62
858.021	61240.62
858.267	61602.62
858.512	61320.62
858.758	61507.62
859.003	61528.62
859.248	61441.62
859.493	61560.62
859.739	61301.62
859.984	61055.62
860.229	60763.62
860.474	60317.62
860.719	60126.62
860.964	59511.62
861.209	59224.62
861.454	58774.62
861.699	58368.62
861.943	58150.62
862.188	57892.62
862.433	57705.62
862.678	57510.62
862.922	57291.62
863.167	57396.62
863.411	57136.62
863.656	57049.62
863.9	56923.62
864.145	56576.62
864.389	56317.62
864.634	56239.62
864.878	56109.62
865.122	55906.62
865.366	55787.62
865.61	55461.62
865.855	55370.62
866.099	55236.62
866.343	55197.62
866.587	54958.62
866.831	54957.62
867.074	54819.62
867.318	54899.62
867.562	54953.62
867.806	54915.62
868.05	54837.62
868.293	54740.62
868.537	54312.62
868.78	54416.62
869.024	54023.62
869.267	53446.62
869.511	53114.62
869.754	52636.62
869.998	52289.62
870.241	51833.62
870.484	51444.62
870.728	51156.62
870.971	50808.62
871.214	50591.62
871.457	50509.62
871.7	50507.62
871.943	50525.62
872.186	50534.62
872.429	50621.62
872.672	50518.62
872.915	50536.62
873.158	50409.62
873.4	50391.62
873.643	50292.62
873.886	50181.62
874.128	50056.62
874.371	49747.62
874.613	49683.62
874.856	49509.62
875.098	49373.62
875.341	49200.62
875.583	49159.62
875.825	48923.62
876.068	48740.62
876.31	48261.62
876.552	47878.62
876.794	47524.62
877.036	46990.62
877.278	46744.62
877.52	46719.62
877.762	46453.62
878.004	46216.62
878.246	46196.62
878.488	46187.62
878.73	46256.62
878.972	45915.62
879.213	45949.62
879.455	45975.62
879.697	46005.62
879.938	45648.62
880.18	45585.62
880.421	45477.62
880.663	45285.62
880.904	45433.62
881.145	45483.62
881.387	45566.62
881.628	45544.62
881.869	45307.62
882.11	45050.62
882.352	44817.62
882.593	44723.62
882.834	44597.62
883.075	44542.62
883.316	44436.62
883.557	44070.62
883.797	43895.62
884.038	43676.62
884.279	42965.62
884.52	42687.62
884.761	42339.62
885.001	41975.62
885.242	41649.62
885.482	41377.62
885.723	41071.62
885.963	40950.62
886.204	40969.62
886.444	40612.62
886.685	40546.62
886.925	40267.62
887.165	40163.62
887.405	39905.62
887.646	39866.62
887.886	39776.62
888.126	39609.62
888.366	39674.62
888.606	39857.62
888.846	39911.62
889.086	39899.62
889.326	39662.62
889.565	39744.62
889.805	39605.62
890.045	39725.62
890.285	39456.62
890.524	39340.62
890.764	39201.62
891.003	38877.62
891.243	38491.62
891.482	38287.62
891.722	37828.62
891.961	37626.62
892.201	37659.62
892.44	37312.62
892.679	37231.62
892.918	36954.62
893.158	36739.62
893.397	36803.62
893.636	36644.62
893.875	36591.62
894.114	36372.62
894.353	36235.62
894.592	36213.62
894.831	35926.62
895.069	35821.62
895.308	35604.62
895.547	35211.62
895.786	35164.62
896.024	34968.62
896.263	34996.62
896.501	34984.62
896.74	34840.62
896.978	34712.62
897.217	34753.62
897.455	34609.62
897.694	34418.62
897.932	34398.62
898.17	34225.62
898.408	34066.62
898.646	34007.62
898.885	33951.62
899.123	33630.62
899.361	33446.62
899.599	33151.62
899.837	33109.62
900.075	32888.62
900.312	32628.62
900.55	32404.62
900.788	31974.62
901.026	31796.62
901.263	31536.62
901.501	31171.62
901.739	31119.62
901.976	31036.62
902.214	30835.62
902.451	30605.62
902.689	30716.62
902.926	30633.62
903.163	30531.62
903.401	30661.62
903.638	30614.62
903.875	30540.62
904.112	30457.62
904.349	30526.62
904.586	30389.62
904.823	30137.62
905.06	30058.62
905.297	29726.62
905.534	29608.62
905.771	29404.62
906.008	29166.62
906.245	29044.62
906.481	28902.62
906.718	28634.62
906.955	28556.62
907.191	28451.62
907.428	28346.62
907.664	28217.62
907.901	27971.62
908.137	28077.62
908.374	28013.62
908.61	27831.62
908.846	27681.62
909.083	27615.62
909.319	27298.62
909.555	27080.62
909.791	26972.62
910.027	26797.62
910.263	26487.62
910.499	26319.62
910.735	26041.62
910.971	25975.62
911.207	25815.62
911.443	25582.62
911.678	25536.62
911.914	25369.62
912.15	25434.62
912.385	25448.62
912.621	25326.62
912.857	25374.62
913.092	25267.62
913.328	25185.62
913.563	25108.62
913.798	25149.62
914.034	25077.62
914.269	24971.62
914.504	24987.62
914.739	24913.62
914.975	24623.62
915.21	24444.62
915.445	24224.62
915.68	23990.62
915.915	23871.62
916.15	23661.62
916.384	23424.62
916.619	23348.62
916.854	23010.62
917.089	22903.62
917.324	22731.62
917.558	22603.62
917.793	22471.62
918.028	22374.62
918.262	22364.62
918.497	22192.62
918.731	22269.62
918.965	22249.62
919.2	22092.62
919.434	22001.62
919.668	22047.62
919.903	21969.62
920.137	21853.62
920.371	21836.62
920.605	21623.62
920.839	21566.62
921.073	21303.62
921.307	21216.62
921.541	21029.62
921.775	20870.62
922.009	20844.62
922.243	20774.62
922.476	20658.62
922.71	20713.62
922.944	20611.62
923.177	20611.62
923.411	20670.62
923.644	20597.62
923.878	20430.62
924.111	20354.62
924.345	20268.62
924.578	20156.62
924.811	20209.62
925.045	19909.62
925.278	19853.62
925.511	19762.62
925.744	19419.62
925.977	19357.62
926.21	19272.62
926.443	19133.62
926.676	18940.62
926.909	18798.62
927.142	18688.62
927.375	18458.62
927.608	18400.62
927.841	18329.62
928.073	18205.62
928.306	18279.62
928.539	18236.62
928.771	18162.62
929.004	18163.62
929.236	18064.62
929.469	18171.62
929.701	18184.62
929.933	18262.62
930.166	18043.62
930.398	18067.62
930.63	18027.62
930.862	18023.62
931.094	17868.62
931.327	17786.62
931.559	17793.62
931.791	17474.62
932.023	17346.62
932.255	17408.62
932.486	17105.62
932.718	17037.62
932.95	17019.62
933.182	16896.62
933.413	16714.62
933.645	16672.62
933.877	16578.62
934.108	16490.62
934.34	16473.62
934.571	16493.62
934.803	16286.62
935.034	16330.62
935.265	16247.62
935.497	16198.62
935.728	16105.62
935.959	15999.62
936.19	15989.62
936.422	15924.62
936.653	15776.62
936.884	15745.62
937.115	15658.62
937.346	15540.62
937.577	15388.62
937.807	15362.62
938.038	15329.62
938.269	15288.62
938.5	15184.62
938.73	15213.62
938.961	15112.62
939.192	15132.62
939.422	15084.62
939.653	15049.62
939.883	15010.62
940.114	15061.62
940.344	14918.62
940.574	14932.62
940.805	14828.62
941.035	14686.62
941.265	14612.62
941.495	14490.62
941.726	14460.62
941.956	14321.62
942.186	14128.62
942.416	14130.62
942.646	13904.62
942.876	13934.62
943.105	13660.62
943.335	13647.62
943.565	13587.62
943.795	13365.62
944.024	13300.62
944.254	13281.62
944.484	13145.62
944.713	13111.62
944.943	13071.62
945.172	12940.62
945.402	12978.62
945.631	12879.62
945.86	12831.62
946.09	12922.62
946.319	12889.62
946.548	12922.62
946.777	12853.62
947.006	12736.62
947.235	12652.62
947.465	12646.62
947.694	12526.62
947.922	12446.62
948.151	12255.62
948.38	12290.62
948.609	12214.62
948.838	12146.62
949.067	12064.62
949.295	11963.62
949.524	11852.62
949.752	11841.62
949.981	11708.62
950.21	11668.62
950.438	11588.62
950.666	11515.62
950.895	11368.62
951.123	11346.62
951.351	11255.62
951.58	11223.62
951.808	11210.62
952.036	11148.62
952.264	11099.62
952.492	10982.62
952.72	10934.62
952.948	10895.62
953.176	10850.62
953.404	10735.62
953.632	10590.62
953.86	10530.62
954.088	10507.62
954.315	10419.62
954.543	10378.62
954.771	10306.62
954.998	10250.62
955.226	10185.62
955.453	10150.62
955.681	10124.62
955.908	10092.62
956.135	10034.62
956.363	10041.62
956.59	9987.62
956.817	9964.62
957.045	9961.62
957.272	9889.62
957.499	9894.62
957.726	9766.62
957.953	9813.62
958.18	9748.62
958.407	9681.62
958.634	9567.62
958.861	9547.62
959.087	9556.62
959.314	9458.62
959.541	9386.62
959.767	9281.62
959.994	9200.62
960.221	9095.62
960.447	9030.62
960.674	9051.62
960.9	8908.62
961.127	8816.62
961.353	8849.62
961.579	8829.62
961.806	8675.62
962.032	8726.62
962.258	8615.62
962.484	8641.62
962.71	8554.62
962.936	8521.62
963.162	8546.62
963.388	8472.62
963.614	8514.62
963.84	8454.62
964.066	8448.62
964.292	8399.62
964.518	8348.62
964.743	8327.62
964.969	8262.62
965.195	8208.62
965.42	8189.62
965.646	8120.62
965.871	8082.62
966.097	8085.62
966.322	7999.62
966.547	7985.62
966.773	7912.62
966.998	7903.62
967.223	7888.62
967.448	7797.62
967.674	7706.62
967.899	7702.62
968.124	7659.62
968.349	7655.62
968.574	7627.62
968.799	7534.62
969.024	7456.62
969.248	7423.62
969.473	7434.62
969.698	7396.62
969.923	7319.62
970.147	7297.62
970.372	7330.62
970.596	7220.62
970.821	7098.62
971.046	7180.62
971.27	7144.62
971.494	7020.62
971.719	7001.62
971.943	6970.62
972.167	6902.62
972.392	6812.62
972.616	6824.62
972.84	6736.62
973.064	6694.62
973.288	6691.62
973.512	6697.62
973.736	6627.62
973.96	6628.62
974.184	6615.62
974.408	6567.62
974.631	6560.62
974.855	6585.62
975.079	6493.62
975.303	6431.62
975.526	6461.62
975.75	6440.62
975.973	6406.62
976.197	6386.62
976.42	6306.62
976.644	6309.62
976.867	6260.62
977.09	6233.62
977.313	6151.62
977.537	6143.62
977.76	6034.62
977.983	6096.62
978.206	6005.62
978.429	5988.62
978.652	5932.62
978.875	5850.62
979.098	5857.62
979.321	5837.62
979.544	5723.62
979.767	5708.62
979.989	5716.62
980.212	5678.62
980.435	5624.62
980.657	5521.62
980.88	5554.62
981.102	5548.62
981.325	5465.62
981.547	5471.62
981.77	5480.62
981.992	5424.62
982.214	5356.62
982.437	5366.62
982.659	5378.62
982.881	5338.62
983.103	5352.62
983.325	5270.62
983.547	5283.62
983.769	5217.62
983.991	5194.62
984.213	5185.62
984.435	5174.62
984.657	5155.62
984.879	5141.62
985.1	5096.62
985.322	5067.62
985.544	5007.62
985.765	5022.62
985.987	4987.62
986.208	4944.62
986.43	4963.62
986.651	4944.62
986.873	4927.62
987.094	4882.62
987.315	4856.62
987.536	4714.62
987.758	4738.62
987.979	4742.62
988.2	4737.62
988.421	4684.62
988.642	4643.62
988.863	4603.62
989.084	4540.62
989.305	4583.62
989.526	4514.62
989.747	4490.62
989.967	4473.62
990.188	4433.62
990.409	4399.62
990.629	4332.62
990.85	4362.62
991.071	4303.62
991.291	4307.62
991.512	4210.62
991.732	4257.62
991.952	4233.62
992.173	4187.62
992.393	4201.62
992.613	4143.62
992.834	4170.62
993.054	4139.62
993.274	4119.62
993.494	4155.62
993.714	4125.62
993.934	4085.62
994.154	4070.62
994.374	4070.62
994.594	4042.62
994.813	4056.62
995.033	3968.62
995.253	3987.62
995.473	3969.62
995.692	3901.62
995.912	3898.62
996.131	3865.62
996.351	3853.62
996.57	3837.62
996.79	3776.62
997.009	3764.62
997.228	3712.62
997.448	3678.62
997.667	3636.62
997.886	3610.62
998.105	3584.62
998.325	3569.62
998.544	3513.62
998.763	3545.62
998.982	3495.62
999.201	3474.62
999.419	3416.62
999.638	3401.62
999.857	3434.62
1000.076	3421.62
1000.295	3362.62
1000.513	3387.62
1000.732	3352.62
1000.95	3327.62
1001.169	3332.62
1001.388	3325.62
1001.606	3301.62
1001.824	3325.62
1002.043	3256.62
1002.261	3208.62
1002.479	3227.62
1002.698	3239.62
1002.916	3227.62
1003.134	3220.62
1003.352	3158.62
1003.57	3161.62
1003.788	3164.62
1004.006	3161.62
1004.224	3138.62
1004.442	3096.62
1004.66	3110.62
1004.878	3123.62
1005.095	3049.62
1005.313	3090.62
1005.531	3079.62
1005.748	3053.62
1005.966	3097.62
1006.184	3013.62
1006.401	3019.62
1006.618	2974.62
1006.836	3007.62
1007.053	2947.62
1007.271	2973.62
1007.488	2963.62
1007.705	2968.62
1007.922	2945.62
1008.139	2888.62
1008.357	2985.62
1008.574	2949.62
1008.791	2980.62
1009.008	3025.62
1009.225	3001.62
1009.441	2996.62
1009.658	3033.62
1009.875	3026.62
1010.092	3016.62
1010.309	2976.62
1010.525	3016.62
1010.742	2932.62
1010.958	2904.62
1011.175	2907.62
1011.391	2827.62
1011.608	2848.62
1011.824	2829.62
1012.041	2775.62
1012.257	2790.62
1012.473	2706.62
1012.689	2667.62
1012.906	2706.62
1013.122	2701.62
1013.338	2688.62
1013.554	2686.62
1013.77	2664.62
1013.986	2683.62
1014.202	2719.62
1014.418	2719.62
1014.634	2807.62
1014.849	2836.62
1015.065	2876.62
1015.281	2847.62
1015.496	2857.62
1015.712	2800.62
1015.928	2753.62
1016.143	2715.62
1016.359	2699.62
1016.574	2589.62
1016.79	2591.62
1017.005	2506.62
1017.22	2501.62
1017.435	2438.62
1017.651	2373.62
1017.866	2323.62
1018.081	2289.62
1018.296	2265.62
1018.511	2237.62
1018.726	2231.62
1018.941	2219.62
1019.156	2188.62
1019.371	2150.62
1019.586	2181.62
1019.801	2140.62
1020.015	2118.62
1020.23	2143.62
1020.445	2098.62
1020.659	2038.62
1020.874	2054.62
1021.088	1997.62
1021.303	1998.62
1021.517	1955.62
1021.732	1937.62
1021.946	1904.62
1022.16	1912.62
1022.375	1857.62
1022.589	1856.62
1022.803	1826.62
1023.017	1776.62
1023.231	1728.62
1023.445	1749.62
1023.659	1694.62
1023.873	1674.62
1024.087	1622.62
1024.301	1593.62
1024.515	1567.62
1024.729	1561.62
1024.942	1499.62
1025.156	1537.62
1025.37	1474.62
1025.583	1460.62
1025.797	1411.62
1026.01	1416.62
1026.224	1363.62
1026.437	1327.62
1026.651	1298.62
1026.864	1259.62
1027.077	1246.62
1027.291	1208.62
1027.504	1163.62
1027.717	1127.62
1027.93	1112.62
1028.143	1081.62
1028.356	1046.62
1028.569	979.62
1028.782	928.62
1028.995	0.62
1029.208	-4.38
1029.421	1.62
1029.634	-1.38
