Data from QEP037381__495__16-01-04-078.txt Node

Date: Mon Mar 14 16:01:04 EDT 2022
User: dcclab
Spectrometer: QEP03738
Trigger mode: 4
Integration Time (sec): 2.500000E0
Scans to average: 1
Electric dark correction enabled: true
Nonlinearity correction enabled: false
Boxcar width: 0
XAxis mode: Wavelengths
Number of Pixels in Spectrum: 1044
>>>>>Begin Spectral Data<<<<<
783.959	13
784.218	-2
784.476	-1
784.734	-3
784.992	254
785.251	236
785.509	238
785.767	237
786.025	232
786.283	226
786.541	224
786.798	233
787.056	225
787.314	223
787.572	239
787.83	228
788.087	234
788.345	234
788.602	222
788.86	223
789.117	240
789.375	226
789.632	224
789.89	227
790.147	249
790.404	231
790.661	241
790.919	259
791.176	247
791.433	247
791.69	255
791.947	257
792.204	257
792.461	276
792.718	279
792.974	274
793.231	280
793.488	321
793.745	293
794.001	316
794.258	348
794.514	335
794.771	347
795.027	378
795.284	384
795.54	407
795.797	419
796.053	477
796.309	492
796.565	541
796.822	610
797.078	672
797.334	773
797.59	936
797.846	1148
798.102	1491
798.358	1984
798.614	2819
798.869	4110
799.125	6032
799.381	8810
799.637	12459
799.892	16975
800.148	21841
800.403	26525
800.659	30886
800.914	34034
801.17	36186
801.425	37609
801.68	38696
801.936	39687
802.191	40428
802.446	41374
802.701	42299
802.957	43003
803.212	44130
803.467	44921
803.722	45893
803.977	46851
804.232	47622
804.486	48679
804.741	49363
804.996	50420
805.251	51349
805.505	52340
805.76	53199
806.015	54078
806.269	54673
806.524	55292
806.778	56026
807.033	56440
807.287	57073
807.541	57705
807.796	58748
808.05	59411
808.304	59970
808.558	60304
808.812	60748
809.066	61062
809.32	61565
809.574	62065
809.828	62450
810.082	62912
810.336	63334
810.59	63835
810.844	64968
811.097	65610
811.351	66596
811.605	67614
811.858	68557
812.112	69651
812.365	70999
812.619	72016
812.872	73031
813.126	73911
813.379	75030
813.632	76137
813.885	76866
814.139	78260
814.392	79352
814.645	80749
814.898	82212
815.151	83626
815.404	85194
815.657	86565
815.91	88020
816.163	89018
816.416	90146
816.668	90569
816.921	91048
817.174	91215
817.426	91307
817.679	91431
817.931	91530
818.184	91341
818.436	91320
818.689	91569
818.941	91752
819.194	92037
819.446	92301
819.698	92772
819.95	93092
820.202	93426
820.455	93874
820.707	94019
820.959	94127
821.211	94029
821.462	94013
821.714	93620
821.966	93256
822.218	92762
822.47	92290
822.722	92039
822.973	91784
823.225	91424
823.476	91293
823.728	91395
823.979	91453
824.231	91520
824.482	91526
824.734	91710
824.985	91688
825.236	91611
825.487	91134
825.739	91007
825.99	90746
826.241	90315
826.492	89841
826.743	89380
826.994	88937
827.245	88627
827.496	88516
827.747	88318
827.997	88193
828.248	88228
828.499	88506
828.75	88430
829	88391
829.251	88334
829.501	88087
829.752	87873
830.002	87448
830.253	86841
830.503	86122
830.753	85846
831.004	85216
831.254	85152
831.504	84867
831.754	84562
832.004	84625
832.254	84775
832.504	84699
832.754	84744
833.004	84297
833.254	84278
833.504	84036
833.754	83965
834.003	83593
834.253	83085
834.503	82722
834.752	82166
835.002	81717
835.252	81622
835.501	81188
835.75	80858
836	80744
836.249	80651
836.499	80617
836.748	80148
836.997	80303
837.246	80586
837.495	80879
837.744	81360
837.993	81834
838.242	82015
838.491	81917
838.74	80956
838.989	79819
839.238	79050
839.487	78436
839.736	78023
839.984	77544
840.233	77225
840.482	76752
840.73	76514
840.979	76163
841.227	76003
841.476	75701
841.724	75566
841.972	75353
842.221	74978
842.469	74725
842.717	74431
842.965	74133
843.213	74061
843.461	73800
843.71	73522
843.958	73284
844.205	72802
844.453	72883
844.701	72696
844.949	72823
845.197	72513
845.445	72708
845.692	72625
845.94	72496
846.188	72726
846.435	72650
846.683	72413
846.93	72040
847.178	71731
847.425	70888
847.672	70386
847.92	69882
848.167	69227
848.414	68912
848.661	68321
848.908	68071
849.155	67806
849.402	67618
849.649	67669
849.896	67977
850.143	68230
850.39	68587
850.637	68779
850.884	68544
851.131	68338
851.377	68142
851.624	67833
851.87	67684
852.117	67219
852.364	66984
852.61	66869
852.856	66585
853.103	66018
853.349	65978
853.595	65756
853.842	65227
854.088	65120
854.334	65167
854.58	65126
854.826	64525
855.072	64391
855.318	63835
855.564	63062
855.81	62738
856.056	62159
856.302	61643
856.548	61151
856.793	60701
857.039	60456
857.285	60257
857.53	60355
857.776	60349
858.021	60477
858.267	60958
858.512	60986
858.758	61013
859.003	61077
859.248	60916
859.493	60774
859.739	60915
859.984	60517
860.229	60310
860.474	59810
860.719	59406
860.964	59089
861.209	58793
861.454	58308
861.699	57915
861.943	57487
862.188	57419
862.433	57158
862.678	56903
862.922	56813
863.167	56794
863.411	56756
863.656	56526
863.9	56407
864.145	56163
864.389	55683
864.634	55819
864.878	55670
865.122	55322
865.366	55330
865.61	55067
865.855	55044
866.099	54787
866.343	54589
866.587	54285
866.831	54631
867.074	54630
867.318	54504
867.562	54440
867.806	54383
868.05	54210
868.293	54288
868.537	53838
868.78	53958
869.024	53459
869.267	52980
869.511	52724
869.754	52222
869.998	51776
870.241	51347
870.484	51240
870.728	50797
870.971	50241
871.214	50115
871.457	50061
871.7	50147
871.943	50129
872.186	50126
872.429	50120
872.672	50313
872.915	49984
873.158	49918
873.4	49957
873.643	49898
873.886	49598
874.128	49541
874.371	49451
874.613	49256
874.856	48968
875.098	48975
875.341	48812
875.583	48642
875.825	48557
876.068	48184
876.31	47849
876.552	47463
876.794	46897
877.036	46713
877.278	46292
877.52	46170
877.762	45934
878.004	45851
878.246	45719
878.488	45863
878.73	45717
878.972	45821
879.213	45702
879.455	45639
879.697	45547
879.938	45241
880.18	44942
880.421	44860
880.663	44972
880.904	44860
881.145	45070
881.387	45177
881.628	45058
881.869	44855
882.11	44637
882.352	44614
882.593	44436
882.834	44316
883.075	43933
883.316	44036
883.557	43796
883.797	43507
884.038	43227
884.279	42806
884.52	42433
884.761	41898
885.001	41584
885.242	41248
885.482	40902
885.723	40803
885.963	40555
886.204	40360
886.444	40263
886.685	40033
886.925	39936
887.165	39825
887.405	39646
887.646	39593
887.886	39392
888.126	39371
888.366	39354
888.606	39479
888.846	39505
889.086	39639
889.326	39574
889.565	39382
889.805	39430
890.045	39216
890.285	39123
890.524	39023
890.764	38988
891.003	38452
891.243	38179
891.482	37852
891.722	37636
891.961	37420
892.201	37194
892.44	36858
892.679	36710
892.918	36663
893.158	36471
893.397	36495
893.636	36481
893.875	36159
894.114	36320
894.353	35921
894.592	35666
894.831	35507
895.069	35511
895.308	35175
895.547	34900
895.786	34795
896.024	34796
896.263	34698
896.501	34602
896.74	34596
896.978	34456
897.217	34445
897.455	34388
897.694	34380
897.932	34105
898.17	33923
898.408	33753
898.646	33914
898.885	33616
899.123	33391
899.361	33171
899.599	32991
899.837	32684
900.075	32431
900.312	32388
900.55	32119
900.788	31728
901.026	31425
901.263	31326
901.501	31093
901.739	30825
901.976	30767
902.214	30565
902.451	30381
902.689	30409
902.926	30484
903.163	30266
903.401	30385
903.638	30379
903.875	30272
904.112	30169
904.349	30257
904.586	29927
904.823	29969
905.06	29749
905.297	29575
905.534	29358
905.771	29098
906.008	28849
906.245	28762
906.481	28657
906.718	28427
906.955	28276
907.191	28252
907.428	28133
907.664	28101
907.901	27958
908.137	27870
908.374	27648
908.61	27626
908.846	27463
909.083	27345
909.319	27027
909.555	26871
909.791	26687
910.027	26425
910.263	26254
910.499	26080
910.735	25819
910.971	25693
911.207	25597
911.443	25359
911.678	25289
911.914	25166
912.15	25201
912.385	25095
912.621	25067
912.857	25029
913.092	24917
913.328	24962
913.563	24978
913.798	24838
914.034	24934
914.269	24788
914.504	24775
914.739	24577
914.975	24420
915.21	24275
915.445	24104
915.68	23895
915.915	23618
916.15	23388
916.384	23147
916.619	22972
916.854	22830
917.089	22758
917.324	22596
917.558	22356
917.793	22302
918.028	22241
918.262	22163
918.497	22047
918.731	22105
918.965	21957
919.2	21914
919.434	21886
919.668	21902
919.903	21822
920.137	21665
920.371	21592
920.605	21470
920.839	21267
921.073	21063
921.307	21060
921.541	20831
921.775	20695
922.009	20604
922.243	20678
922.476	20566
922.71	20618
922.944	20512
923.177	20469
923.411	20367
923.644	20329
923.878	20222
924.111	20114
924.345	20192
924.578	20038
924.811	19870
925.045	19755
925.278	19693
925.511	19544
925.744	19400
925.977	19232
926.21	19011
926.443	18990
926.676	18824
926.909	18646
927.142	18486
927.375	18307
927.608	18239
927.841	18183
928.073	18130
928.306	18132
928.539	18072
928.771	18042
929.004	18028
929.236	17923
929.469	18060
929.701	17998
929.933	18059
930.166	17955
930.398	17911
930.63	17930
930.862	17782
931.094	17667
931.327	17605
931.559	17519
931.791	17390
932.023	17222
932.255	17159
932.486	17097
932.718	16919
932.95	16874
933.182	16650
933.413	16689
933.645	16629
933.877	16476
934.108	16438
934.34	16316
934.571	16316
934.803	16263
935.034	16141
935.265	16129
935.497	16009
935.728	15994
935.959	15879
936.19	15857
936.422	15772
936.653	15716
936.884	15584
937.115	15537
937.346	15440
937.577	15294
937.807	15231
938.038	15195
938.269	15158
938.5	15021
938.73	15086
938.961	14960
939.192	15066
939.422	14964
939.653	14986
939.883	14909
940.114	14915
940.344	14789
940.574	14753
940.805	14690
941.035	14612
941.265	14428
941.495	14409
941.726	14332
941.956	14185
942.186	14176
942.416	14056
942.646	13841
942.876	13762
943.105	13624
943.335	13510
943.565	13459
943.795	13321
944.024	13221
944.254	13136
944.484	13125
944.713	13094
944.943	12899
945.172	12941
945.402	12839
945.631	12781
945.86	12813
946.09	12784
946.319	12772
946.548	12809
946.777	12733
947.006	12632
947.235	12581
947.465	12547
947.694	12464
947.922	12420
948.151	12208
948.38	12175
948.609	12131
948.838	12030
949.067	11893
949.295	11812
949.524	11827
949.752	11730
949.981	11664
950.21	11518
950.438	11475
950.666	11442
950.895	11397
951.123	11280
951.351	11244
951.58	11154
951.808	11117
952.036	11073
952.264	11037
952.492	10840
952.72	10921
952.948	10804
953.176	10714
953.404	10618
953.632	10482
953.86	10489
954.088	10374
954.315	10328
954.543	10270
954.771	10192
954.998	10113
955.226	10132
955.453	10038
955.681	9988
955.908	10029
956.135	9952
956.363	9951
956.59	9849
956.817	9900
957.045	9902
957.272	9854
957.499	9786
957.726	9751
957.953	9716
958.18	9667
958.407	9577
958.634	9652
958.861	9494
959.087	9425
959.314	9347
959.541	9288
959.767	9218
959.994	9173
960.221	9128
960.447	8979
960.674	8930
960.9	8827
961.127	8851
961.353	8788
961.579	8676
961.806	8717
962.032	8577
962.258	8545
962.484	8534
962.71	8522
962.936	8524
963.162	8485
963.388	8400
963.614	8372
963.84	8366
964.066	8421
964.292	8369
964.518	8280
964.743	8219
964.969	8240
965.195	8174
965.42	8150
965.646	8085
965.871	8111
966.097	8008
966.322	7987
966.547	7918
966.773	7842
966.998	7842
967.223	7815
967.448	7763
967.674	7687
967.899	7605
968.124	7627
968.349	7598
968.574	7520
968.799	7533
969.024	7401
969.248	7457
969.473	7393
969.698	7308
969.923	7241
970.147	7305
970.372	7224
970.596	7142
970.821	7158
971.046	7127
971.27	7025
971.494	7043
971.719	6997
971.943	6857
972.167	6831
972.392	6821
972.616	6790
972.84	6717
973.064	6658
973.288	6621
973.512	6611
973.736	6623
973.96	6595
974.184	6531
974.408	6535
974.631	6530
974.855	6486
975.079	6443
975.303	6407
975.526	6400
975.75	6389
975.973	6349
976.197	6354
976.42	6336
976.644	6266
976.867	6246
977.09	6124
977.313	6160
977.537	6107
977.76	6051
977.983	6025
978.206	5997
978.429	5955
978.652	5893
978.875	5900
979.098	5799
979.321	5775
979.544	5737
979.767	5645
979.989	5620
980.212	5605
980.435	5602
980.657	5535
980.88	5514
981.102	5490
981.325	5481
981.547	5465
981.77	5400
981.992	5433
982.214	5349
982.437	5372
982.659	5344
982.881	5296
983.103	5361
983.325	5238
983.547	5247
983.769	5208
983.991	5208
984.213	5205
984.435	5140
984.657	5117
984.879	5062
985.1	5057
985.322	5031
985.544	5039
985.765	4946
985.987	4913
986.208	4949
986.43	4879
986.651	4900
986.873	4833
987.094	4841
987.315	4786
987.536	4706
987.758	4727
987.979	4725
988.2	4662
988.421	4618
988.642	4623
988.863	4578
989.084	4520
989.305	4531
989.526	4489
989.747	4446
989.967	4431
990.188	4360
990.409	4366
990.629	4329
990.85	4323
991.071	4281
991.291	4255
991.512	4211
991.732	4212
991.952	4181
992.173	4122
992.393	4194
992.613	4125
992.834	4153
993.054	4122
993.274	4100
993.494	4098
993.714	4078
993.934	4073
994.154	4043
994.374	4029
994.594	3993
994.813	4035
995.033	4002
995.253	3972
995.473	3944
995.692	3911
995.912	3908
996.131	3852
996.351	3819
996.57	3799
996.79	3766
997.009	3739
997.228	3740
997.448	3651
997.667	3624
997.886	3631
998.105	3565
998.325	3578
998.544	3575
998.763	3527
998.982	3515
999.201	3454
999.419	3410
999.638	3433
999.857	3404
1000.076	3366
1000.295	3382
1000.513	3374
1000.732	3331
1000.95	3310
1001.169	3307
1001.388	3319
1001.606	3313
1001.824	3326
1002.043	3266
1002.261	3203
1002.479	3220
1002.698	3196
1002.916	3185
1003.134	3228
1003.352	3166
1003.57	3163
1003.788	3155
1004.006	3101
1004.224	3152
1004.442	3129
1004.66	3093
1004.878	3126
1005.095	3074
1005.313	3104
1005.531	3035
1005.748	3030
1005.966	3114
1006.184	3022
1006.401	2991
1006.618	2980
1006.836	3004
1007.053	2967
1007.271	2970
1007.488	2936
1007.705	2958
1007.922	2958
1008.139	2932
1008.357	2934
1008.574	2942
1008.791	2961
1009.008	3043
1009.225	2977
1009.441	3021
1009.658	3004
1009.875	3041
1010.092	3026
1010.309	2996
1010.525	2997
1010.742	2905
1010.958	2900
1011.175	2899
1011.391	2815
1011.608	2879
1011.824	2797
1012.041	2779
1012.257	2809
1012.473	2723
1012.689	2720
1012.906	2731
1013.122	2677
1013.338	2687
1013.554	2688
1013.77	2687
1013.986	2695
1014.202	2719
1014.418	2785
1014.634	2826
1014.849	2840
1015.065	2863
1015.281	2864
1015.496	2873
1015.712	2806
1015.928	2806
1016.143	2690
1016.359	2673
1016.574	2644
1016.79	2576
1017.005	2536
1017.22	2486
1017.435	2432
1017.651	2383
1017.866	2315
1018.081	2285
1018.296	2249
1018.511	2241
1018.726	2237
1018.941	2198
1019.156	2181
1019.371	2164
1019.586	2181
1019.801	2150
1020.015	2157
1020.23	2137
1020.445	2078
1020.659	2081
1020.874	2060
1021.088	2024
1021.303	1974
1021.517	1947
1021.732	1917
1021.946	1919
1022.16	1911
1022.375	1843
1022.589	1840
1022.803	1835
1023.017	1780
1023.231	1757
1023.445	1739
1023.659	1691
1023.873	1680
1024.087	1619
1024.301	1584
1024.515	1582
1024.729	1551
1024.942	1515
1025.156	1511
1025.37	1477
1025.583	1437
1025.797	1417
1026.01	1395
1026.224	1359
1026.437	1338
1026.651	1272
1026.864	1235
1027.077	1228
1027.291	1192
1027.504	1185
1027.717	1126
1027.93	1118
1028.143	1069
1028.356	1055
1028.569	989
1028.782	932
1028.995	-3
1029.208	-1
1029.421	-2
1029.634	-1
