Data from QEP037381__488__16-00-46-578.txt Node

Date: Mon Mar 14 16:00:46 EDT 2022
User: dcclab
Spectrometer: QEP03738
Trigger mode: 4
Integration Time (sec): 2.500000E0
Scans to average: 1
Electric dark correction enabled: true
Nonlinearity correction enabled: false
Boxcar width: 0
XAxis mode: Wavelengths
Number of Pixels in Spectrum: 1044
>>>>>Begin Spectral Data<<<<<
783.959	12.12
784.218	0.12
784.476	-3.88
784.734	-1.88
784.992	256.12
785.251	234.12
785.509	230.12
785.767	225.12
786.025	232.12
786.283	228.12
786.541	220.12
786.798	238.12
787.056	219.12
787.314	211.12
787.572	216.12
787.83	210.12
788.087	235.12
788.345	220.12
788.602	215.12
788.86	216.12
789.117	224.12
789.375	214.12
789.632	220.12
789.89	214.12
790.147	234.12
790.404	230.12
790.661	234.12
790.919	248.12
791.176	237.12
791.433	241.12
791.69	251.12
791.947	266.12
792.204	243.12
792.461	270.12
792.718	265.12
792.974	263.12
793.231	274.12
793.488	303.12
793.745	293.12
794.001	310.12
794.258	327.12
794.514	324.12
794.771	343.12
795.027	362.12
795.284	382.12
795.54	411.12
795.797	434.12
796.053	469.12
796.309	488.12
796.565	530.12
796.822	582.12
797.078	655.12
797.334	748.12
797.59	894.12
797.846	1129.12
798.102	1451.12
798.358	1960.12
798.614	2769.12
798.869	3986.12
799.125	5921.12
799.381	8628.12
799.637	12215.12
799.892	16500.12
800.148	21274.12
800.403	25858.12
800.659	29925.12
800.914	32899.12
801.17	35001.12
801.425	36286.12
801.68	37580.12
801.936	38356.12
802.191	39354.12
802.446	40004.12
802.701	40899.12
802.957	41715.12
803.212	42593.12
803.467	43506.12
803.722	44400.12
803.977	45261.12
804.232	46086.12
804.486	47131.12
804.741	48010.12
804.996	48936.12
805.251	49809.12
805.505	50543.12
805.76	51507.12
806.015	52373.12
806.269	52997.12
806.524	53619.12
806.778	54126.12
807.033	54642.12
807.287	55216.12
807.541	56052.12
807.796	56716.12
808.05	57501.12
808.304	57864.12
808.558	58242.12
808.812	58594.12
809.066	59221.12
809.32	59852.12
809.574	59999.12
809.828	60339.12
810.082	60739.12
810.336	61404.12
810.59	61963.12
810.844	62779.12
811.097	63331.12
811.351	64452.12
811.605	65532.12
811.858	66369.12
812.112	67382.12
812.365	68615.12
812.619	69666.12
812.872	70645.12
813.126	71595.12
813.379	72612.12
813.632	73765.12
813.885	74624.12
814.139	75650.12
814.392	76870.12
814.645	78088.12
814.898	79587.12
815.151	80960.12
815.404	82430.12
815.657	83992.12
815.91	85070.12
816.163	86225.12
816.416	87249.12
816.668	87777.12
816.921	88191.12
817.174	88409.12
817.426	88494.12
817.679	88449.12
817.931	88628.12
818.184	88542.12
818.436	88551.12
818.689	88855.12
818.941	88841.12
819.194	89276.12
819.446	89413.12
819.698	89841.12
819.95	90290.12
820.202	90509.12
820.455	90793.12
820.707	91261.12
820.959	91195.12
821.211	91306.12
821.462	90867.12
821.714	90819.12
821.966	90194.12
822.218	90001.12
822.47	89498.12
822.722	89076.12
822.973	88824.12
823.225	88609.12
823.476	88363.12
823.728	88505.12
823.979	88500.12
824.231	88352.12
824.482	88653.12
824.734	88613.12
824.985	88618.12
825.236	88731.12
825.487	88698.12
825.739	88310.12
825.99	87548.12
826.241	87442.12
826.492	86950.12
826.743	86599.12
826.994	86513.12
827.245	86055.12
827.496	85890.12
827.747	85592.12
827.997	85516.12
828.248	85543.12
828.499	85849.12
828.75	85849.12
829	85645.12
829.251	85421.12
829.501	85608.12
829.752	85065.12
830.002	84802.12
830.253	84301.12
830.503	83779.12
830.753	83316.12
831.004	82653.12
831.254	82283.12
831.504	82396.12
831.754	82051.12
832.004	82123.12
832.254	81850.12
832.504	82116.12
832.754	81856.12
833.004	81960.12
833.254	81584.12
833.504	81493.12
833.754	81271.12
834.003	81007.12
834.253	80734.12
834.503	80247.12
834.752	79839.12
835.002	79294.12
835.252	78889.12
835.501	78438.12
835.75	78404.12
836	78040.12
836.249	78293.12
836.499	78014.12
836.748	77956.12
836.997	77946.12
837.246	77983.12
837.495	78385.12
837.744	78649.12
837.993	79215.12
838.242	79574.12
838.491	79204.12
838.74	78353.12
838.989	77297.12
839.238	76733.12
839.487	76022.12
839.736	75518.12
839.984	75278.12
840.233	74839.12
840.482	74397.12
840.73	74312.12
840.979	73884.12
841.227	73840.12
841.476	73284.12
841.724	73141.12
841.972	72963.12
842.221	72679.12
842.469	72429.12
842.717	72201.12
842.965	71881.12
843.213	71674.12
843.461	71510.12
843.71	71321.12
843.958	70770.12
844.205	70841.12
844.453	70399.12
844.701	70427.12
844.949	70604.12
845.197	70321.12
845.445	70459.12
845.692	70406.12
845.94	70201.12
846.188	70529.12
846.435	70345.12
846.683	70249.12
846.93	69993.12
847.178	69257.12
847.425	68832.12
847.672	68247.12
847.92	67781.12
848.167	67313.12
848.414	66726.12
848.661	66123.12
848.908	65918.12
849.155	65568.12
849.402	65607.12
849.649	65639.12
849.896	65709.12
850.143	66017.12
850.39	66497.12
850.637	66616.12
850.884	66515.12
851.131	66504.12
851.377	65938.12
851.624	65683.12
851.87	65502.12
852.117	65254.12
852.364	64869.12
852.61	64774.12
852.856	64491.12
853.103	64158.12
853.349	64007.12
853.595	63760.12
853.842	63306.12
854.088	63232.12
854.334	63383.12
854.58	63211.12
854.826	62767.12
855.072	62251.12
855.318	61748.12
855.564	61288.12
855.81	60799.12
856.056	60104.12
856.302	59481.12
856.548	59267.12
856.793	58954.12
857.039	58652.12
857.285	58498.12
857.53	58640.12
857.776	58618.12
858.021	58700.12
858.267	59189.12
858.512	59045.12
858.758	59220.12
859.003	59150.12
859.248	59152.12
859.493	59115.12
859.739	59083.12
859.984	58611.12
860.229	58502.12
860.474	58132.12
860.719	57625.12
860.964	57320.12
861.209	56877.12
861.454	56434.12
861.699	56135.12
861.943	55795.12
862.188	55748.12
862.433	55673.12
862.678	55232.12
862.922	55059.12
863.167	55162.12
863.411	54921.12
863.656	54840.12
863.9	54709.12
864.145	54520.12
864.389	54194.12
864.634	54078.12
864.878	53778.12
865.122	53791.12
865.366	53649.12
865.61	53425.12
865.855	53195.12
866.099	53035.12
866.343	53042.12
866.587	52746.12
866.831	52988.12
867.074	52847.12
867.318	52990.12
867.562	52759.12
867.806	52768.12
868.05	52556.12
868.293	52489.12
868.537	52295.12
868.78	52137.12
869.024	51902.12
869.267	51284.12
869.511	51104.12
869.754	50680.12
869.998	50172.12
870.241	49827.12
870.484	49553.12
870.728	49121.12
870.971	48935.12
871.214	48690.12
871.457	48584.12
871.7	48653.12
871.943	48454.12
872.186	48579.12
872.429	48674.12
872.672	48557.12
872.915	48600.12
873.158	48559.12
873.4	48356.12
873.643	48319.12
873.886	47876.12
874.128	47949.12
874.371	47762.12
874.613	47816.12
874.856	47547.12
875.098	47473.12
875.341	47402.12
875.583	47275.12
875.825	47084.12
876.068	46674.12
876.31	46335.12
876.552	46126.12
876.794	45620.12
877.036	45311.12
877.278	44919.12
877.52	44814.12
877.762	44532.12
878.004	44585.12
878.246	44436.12
878.488	44420.12
878.73	44326.12
878.972	44335.12
879.213	44158.12
879.455	44187.12
879.697	44130.12
879.938	43791.12
880.18	43753.12
880.421	43547.12
880.663	43515.12
880.904	43530.12
881.145	43628.12
881.387	43620.12
881.628	43699.12
881.869	43575.12
882.11	43244.12
882.352	43091.12
882.593	43062.12
882.834	42843.12
883.075	42685.12
883.316	42720.12
883.557	42403.12
883.797	42224.12
884.038	41945.12
884.279	41389.12
884.52	40931.12
884.761	40741.12
885.001	40226.12
885.242	40044.12
885.482	39721.12
885.723	39534.12
885.963	39269.12
886.204	39232.12
886.444	38978.12
886.685	38954.12
886.925	38706.12
887.165	38532.12
887.405	38334.12
887.646	38201.12
887.886	38039.12
888.126	38042.12
888.366	38244.12
888.606	38203.12
888.846	38193.12
889.086	38295.12
889.326	38286.12
889.565	38174.12
889.805	37989.12
890.045	38110.12
890.285	37852.12
890.524	37838.12
890.764	37716.12
891.003	37406.12
891.243	36953.12
891.482	36695.12
891.722	36339.12
891.961	36171.12
892.201	35882.12
892.44	35753.12
892.679	35588.12
892.918	35531.12
893.158	35567.12
893.397	35322.12
893.636	35165.12
893.875	35141.12
894.114	35005.12
894.353	34809.12
894.592	34555.12
894.831	34468.12
895.069	34275.12
895.308	34105.12
895.547	33785.12
895.786	33762.12
896.024	33730.12
896.263	33625.12
896.501	33496.12
896.74	33431.12
896.978	33442.12
897.217	33310.12
897.455	33338.12
897.694	33175.12
897.932	32970.12
898.17	32839.12
898.408	32731.12
898.646	32771.12
898.885	32460.12
899.123	32318.12
899.361	32079.12
899.599	31955.12
899.837	31689.12
900.075	31561.12
900.312	31380.12
900.55	31065.12
900.788	30809.12
901.026	30644.12
901.263	30278.12
901.501	30062.12
901.739	29994.12
901.976	29817.12
902.214	29604.12
902.451	29564.12
902.689	29613.12
902.926	29540.12
903.163	29406.12
903.401	29444.12
903.638	29284.12
903.875	29416.12
904.112	29316.12
904.349	29163.12
904.586	29168.12
904.823	29056.12
905.06	28877.12
905.297	28669.12
905.534	28459.12
905.771	28135.12
906.008	28045.12
906.245	27838.12
906.481	27700.12
906.718	27675.12
906.955	27464.12
907.191	27347.12
907.428	27154.12
907.664	27125.12
907.901	26911.12
908.137	26866.12
908.374	26782.12
908.61	26546.12
908.846	26624.12
909.083	26466.12
909.319	26234.12
909.555	26090.12
909.791	25835.12
910.027	25704.12
910.263	25423.12
910.499	25338.12
910.735	25108.12
910.971	24907.12
911.207	24788.12
911.443	24567.12
911.678	24582.12
911.914	24451.12
912.15	24380.12
912.385	24260.12
912.621	24286.12
912.857	24332.12
913.092	24278.12
913.328	24245.12
913.563	24189.12
913.798	24205.12
914.034	24127.12
914.269	24023.12
914.504	23897.12
914.739	23860.12
914.975	23699.12
915.21	23501.12
915.445	23376.12
915.68	23126.12
915.915	23030.12
916.15	22749.12
916.384	22513.12
916.619	22270.12
916.854	22107.12
917.089	22002.12
917.324	21905.12
917.558	21746.12
917.793	21519.12
918.028	21485.12
918.262	21430.12
918.497	21379.12
918.731	21323.12
918.965	21356.12
919.2	21309.12
919.434	21295.12
919.668	21153.12
919.903	21150.12
920.137	21057.12
920.371	20904.12
920.605	20817.12
920.839	20734.12
921.073	20441.12
921.307	20331.12
921.541	20181.12
921.775	20092.12
922.009	19988.12
922.243	19950.12
922.476	19913.12
922.71	19941.12
922.944	19868.12
923.177	19826.12
923.411	19758.12
923.644	19738.12
923.878	19600.12
924.111	19676.12
924.345	19507.12
924.578	19348.12
924.811	19271.12
925.045	19188.12
925.278	19127.12
925.511	18886.12
925.744	18764.12
925.977	18685.12
926.21	18489.12
926.443	18295.12
926.676	18217.12
926.909	18211.12
927.142	18033.12
927.375	17798.12
927.608	17684.12
927.841	17640.12
928.073	17534.12
928.306	17469.12
928.539	17472.12
928.771	17450.12
929.004	17489.12
929.236	17486.12
929.469	17460.12
929.701	17493.12
929.933	17526.12
930.166	17502.12
930.398	17387.12
930.63	17357.12
930.862	17224.12
931.094	17144.12
931.327	17119.12
931.559	16950.12
931.791	16821.12
932.023	16741.12
932.255	16663.12
932.486	16588.12
932.718	16427.12
932.95	16344.12
933.182	16300.12
933.413	16164.12
933.645	16105.12
933.877	15952.12
934.108	15931.12
934.34	15868.12
934.571	15760.12
934.803	15774.12
935.034	15661.12
935.265	15680.12
935.497	15567.12
935.728	15468.12
935.959	15407.12
936.19	15293.12
936.422	15251.12
936.653	15112.12
936.884	15180.12
937.115	15088.12
937.346	14950.12
937.577	14873.12
937.807	14751.12
938.038	14701.12
938.269	14692.12
938.5	14649.12
938.73	14529.12
938.961	14545.12
939.192	14608.12
939.422	14478.12
939.653	14548.12
939.883	14451.12
940.114	14413.12
940.344	14402.12
940.574	14278.12
940.805	14259.12
941.035	14191.12
941.265	13990.12
941.495	14010.12
941.726	13926.12
941.956	13775.12
942.186	13637.12
942.416	13599.12
942.646	13503.12
942.876	13293.12
943.105	13221.12
943.335	13063.12
943.565	13125.12
943.795	12926.12
944.024	12806.12
944.254	12746.12
944.484	12638.12
944.713	12680.12
944.943	12619.12
945.172	12536.12
945.402	12483.12
945.631	12433.12
945.86	12436.12
946.09	12398.12
946.319	12381.12
946.548	12290.12
946.777	12365.12
947.006	12178.12
947.235	12259.12
947.465	12122.12
947.694	12041.12
947.922	11949.12
948.151	11942.12
948.38	11866.12
948.609	11694.12
948.838	11712.12
949.067	11585.12
949.295	11513.12
949.524	11436.12
949.752	11344.12
949.981	11346.12
950.21	11261.12
950.438	11165.12
950.666	11093.12
950.895	11009.12
951.123	10954.12
951.351	10898.12
951.58	10822.12
951.808	10714.12
952.036	10648.12
952.264	10710.12
952.492	10643.12
952.72	10572.12
952.948	10492.12
953.176	10390.12
953.404	10342.12
953.632	10229.12
953.86	10105.12
954.088	10125.12
954.315	10049.12
954.543	9987.12
954.771	9889.12
954.998	9779.12
955.226	9796.12
955.453	9758.12
955.681	9728.12
955.908	9741.12
956.135	9681.12
956.363	9739.12
956.59	9629.12
956.817	9606.12
957.045	9548.12
957.272	9557.12
957.499	9476.12
957.726	9464.12
957.953	9408.12
958.18	9430.12
958.407	9274.12
958.634	9264.12
958.861	9218.12
959.087	9152.12
959.314	9017.12
959.541	9004.12
959.767	8995.12
959.994	8877.12
960.221	8847.12
960.447	8743.12
960.674	8676.12
960.9	8592.12
961.127	8587.12
961.353	8449.12
961.579	8426.12
961.806	8457.12
962.032	8378.12
962.258	8294.12
962.484	8280.12
962.71	8282.12
962.936	8181.12
963.162	8196.12
963.388	8222.12
963.614	8142.12
963.84	8097.12
964.066	8108.12
964.292	8081.12
964.518	8056.12
964.743	7969.12
964.969	8035.12
965.195	7941.12
965.42	7927.12
965.646	7854.12
965.871	7833.12
966.097	7786.12
966.322	7737.12
966.547	7702.12
966.773	7628.12
966.998	7618.12
967.223	7586.12
967.448	7533.12
967.674	7450.12
967.899	7388.12
968.124	7404.12
968.349	7394.12
968.574	7343.12
968.799	7255.12
969.024	7182.12
969.248	7172.12
969.473	7148.12
969.698	7164.12
969.923	7008.12
970.147	7056.12
970.372	6967.12
970.596	6989.12
970.821	6915.12
971.046	6871.12
971.27	6886.12
971.494	6784.12
971.719	6774.12
971.943	6761.12
972.167	6676.12
972.392	6575.12
972.616	6550.12
972.84	6496.12
973.064	6532.12
973.288	6477.12
973.512	6404.12
973.736	6402.12
973.96	6369.12
974.184	6388.12
974.408	6383.12
974.631	6329.12
974.855	6347.12
975.079	6221.12
975.303	6255.12
975.526	6219.12
975.75	6161.12
975.973	6116.12
976.197	6104.12
976.42	6145.12
976.644	6045.12
976.867	6071.12
977.09	6009.12
977.313	5964.12
977.537	5887.12
977.76	5833.12
977.983	5814.12
978.206	5756.12
978.429	5771.12
978.652	5738.12
978.875	5692.12
979.098	5643.12
979.321	5590.12
979.544	5518.12
979.767	5510.12
979.989	5506.12
980.212	5461.12
980.435	5381.12
980.657	5438.12
980.88	5378.12
981.102	5360.12
981.325	5335.12
981.547	5294.12
981.77	5284.12
981.992	5263.12
982.214	5232.12
982.437	5171.12
982.659	5137.12
982.881	5131.12
983.103	5110.12
983.325	5087.12
983.547	5044.12
983.769	5066.12
983.991	5000.12
984.213	5022.12
984.435	4989.12
984.657	4975.12
984.879	4952.12
985.1	4895.12
985.322	4842.12
985.544	4848.12
985.765	4865.12
985.987	4823.12
986.208	4802.12
986.43	4801.12
986.651	4750.12
986.873	4698.12
987.094	4712.12
987.315	4636.12
987.536	4651.12
987.758	4609.12
987.979	4536.12
988.2	4565.12
988.421	4509.12
988.642	4454.12
988.863	4423.12
989.084	4430.12
989.305	4407.12
989.526	4313.12
989.747	4323.12
989.967	4307.12
990.188	4325.12
990.409	4258.12
990.629	4210.12
990.85	4177.12
991.071	4176.12
991.291	4121.12
991.512	4144.12
991.732	4044.12
991.952	4075.12
992.173	4080.12
992.393	4058.12
992.613	4021.12
992.834	4024.12
993.054	4016.12
993.274	3986.12
993.494	3966.12
993.714	3973.12
993.934	3949.12
994.154	3913.12
994.374	3973.12
994.594	3857.12
994.813	3915.12
995.033	3879.12
995.253	3831.12
995.473	3854.12
995.692	3792.12
995.912	3774.12
996.131	3747.12
996.351	3707.12
996.57	3698.12
996.79	3664.12
997.009	3642.12
997.228	3618.12
997.448	3577.12
997.667	3548.12
997.886	3512.12
998.105	3467.12
998.325	3428.12
998.544	3432.12
998.763	3411.12
998.982	3430.12
999.201	3355.12
999.419	3319.12
999.638	3303.12
999.857	3310.12
1000.076	3290.12
1000.295	3245.12
1000.513	3263.12
1000.732	3246.12
1000.95	3198.12
1001.169	3224.12
1001.388	3211.12
1001.606	3205.12
1001.824	3147.12
1002.043	3204.12
1002.261	3159.12
1002.479	3171.12
1002.698	3108.12
1002.916	3091.12
1003.134	3069.12
1003.352	3081.12
1003.57	3116.12
1003.788	3069.12
1004.006	3070.12
1004.224	3048.12
1004.442	3024.12
1004.66	3011.12
1004.878	3012.12
1005.095	3013.12
1005.313	3024.12
1005.531	2956.12
1005.748	2896.12
1005.966	3004.12
1006.184	2941.12
1006.401	2919.12
1006.618	2919.12
1006.836	2873.12
1007.053	2924.12
1007.271	2933.12
1007.488	2881.12
1007.705	2896.12
1007.922	2857.12
1008.139	2829.12
1008.357	2906.12
1008.574	2854.12
1008.791	2864.12
1009.008	2928.12
1009.225	2867.12
1009.441	2943.12
1009.658	2923.12
1009.875	2946.12
1010.092	2928.12
1010.309	2890.12
1010.525	2883.12
1010.742	2814.12
1010.958	2790.12
1011.175	2824.12
1011.391	2781.12
1011.608	2692.12
1011.824	2728.12
1012.041	2680.12
1012.257	2700.12
1012.473	2677.12
1012.689	2594.12
1012.906	2624.12
1013.122	2625.12
1013.338	2622.12
1013.554	2649.12
1013.77	2564.12
1013.986	2614.12
1014.202	2636.12
1014.418	2669.12
1014.634	2728.12
1014.849	2761.12
1015.065	2781.12
1015.281	2788.12
1015.496	2750.12
1015.712	2764.12
1015.928	2694.12
1016.143	2632.12
1016.359	2600.12
1016.574	2539.12
1016.79	2513.12
1017.005	2431.12
1017.22	2391.12
1017.435	2328.12
1017.651	2328.12
1017.866	2300.12
1018.081	2226.12
1018.296	2168.12
1018.511	2188.12
1018.726	2181.12
1018.941	2134.12
1019.156	2105.12
1019.371	2088.12
1019.586	2126.12
1019.801	2093.12
1020.015	2063.12
1020.23	2073.12
1020.445	2027.12
1020.659	2020.12
1020.874	2034.12
1021.088	1942.12
1021.303	1921.12
1021.517	1899.12
1021.732	1899.12
1021.946	1870.12
1022.16	1846.12
1022.375	1821.12
1022.589	1780.12
1022.803	1771.12
1023.017	1751.12
1023.231	1710.12
1023.445	1681.12
1023.659	1627.12
1023.873	1597.12
1024.087	1570.12
1024.301	1555.12
1024.515	1547.12
1024.729	1518.12
1024.942	1471.12
1025.156	1469.12
1025.37	1430.12
1025.583	1412.12
1025.797	1372.12
1026.01	1353.12
1026.224	1312.12
1026.437	1285.12
1026.651	1253.12
1026.864	1198.12
1027.077	1205.12
1027.291	1167.12
1027.504	1136.12
1027.717	1113.12
1027.93	1077.12
1028.143	1043.12
1028.356	1004.12
1028.569	941.12
1028.782	903.12
1028.995	-1.88
1029.208	2.12
1029.421	-2.88
1029.634	-3.88
