Data from QEP037381__498__16-01-11-579.txt Node

Date: Mon Mar 14 16:01:11 EDT 2022
User: dcclab
Spectrometer: QEP03738
Trigger mode: 4
Integration Time (sec): 2.500000E0
Scans to average: 1
Electric dark correction enabled: true
Nonlinearity correction enabled: false
Boxcar width: 0
XAxis mode: Wavelengths
Number of Pixels in Spectrum: 1044
>>>>>Begin Spectral Data<<<<<
783.959	11.25
784.218	2.25
784.476	-1.75
784.734	-1.75
784.992	254.25
785.251	248.25
785.509	234.25
785.767	228.25
786.025	233.25
786.283	218.25
786.541	235.25
786.798	232.25
787.056	241.25
787.314	209.25
787.572	218.25
787.83	218.25
788.087	237.25
788.345	220.25
788.602	219.25
788.86	222.25
789.117	223.25
789.375	224.25
789.632	227.25
789.89	215.25
790.147	244.25
790.404	233.25
790.661	238.25
790.919	250.25
791.176	251.25
791.433	245.25
791.69	257.25
791.947	255.25
792.204	240.25
792.461	267.25
792.718	267.25
792.974	266.25
793.231	279.25
793.488	315.25
793.745	299.25
794.001	323.25
794.258	345.25
794.514	326.25
794.771	348.25
795.027	366.25
795.284	390.25
795.54	415.25
795.797	415.25
796.053	471.25
796.309	486.25
796.565	522.25
796.822	584.25
797.078	658.25
797.334	772.25
797.59	926.25
797.846	1140.25
798.102	1467.25
798.358	1968.25
798.614	2784.25
798.869	4059.25
799.125	5909.25
799.381	8697.25
799.637	12361.25
799.892	16707.25
800.148	21565.25
800.403	26234.25
800.659	30397.25
800.914	33474.25
801.17	35594.25
801.425	37111.25
801.68	38159.25
801.936	39107.25
802.191	40131.25
802.446	40790.25
802.701	41633.25
802.957	42547.25
803.212	43337.25
803.467	44229.25
803.722	45172.25
803.977	46051.25
804.232	46867.25
804.486	48088.25
804.741	48867.25
804.996	49739.25
805.251	50497.25
805.505	51468.25
805.76	52471.25
806.015	53351.25
806.269	54058.25
806.524	54541.25
806.778	55089.25
807.033	55768.25
807.287	56253.25
807.541	56942.25
807.796	57816.25
808.05	58506.25
808.304	58916.25
808.558	59408.25
808.812	59773.25
809.066	60145.25
809.32	60870.25
809.574	61161.25
809.828	61616.25
810.082	61909.25
810.336	62388.25
810.59	63248.25
810.844	63713.25
811.097	64546.25
811.351	65740.25
811.605	66766.25
811.858	67684.25
812.112	68752.25
812.365	69936.25
812.619	71061.25
812.872	72105.25
813.126	72889.25
813.379	74144.25
813.632	75003.25
813.885	76095.25
814.139	77157.25
814.392	78256.25
814.645	79517.25
814.898	80901.25
815.151	82416.25
815.404	84076.25
815.657	85582.25
815.91	86790.25
816.163	87998.25
816.416	88922.25
816.668	89439.25
816.921	89896.25
817.174	89972.25
817.426	90207.25
817.679	90170.25
817.931	90267.25
818.184	90176.25
818.436	90294.25
818.689	90408.25
818.941	90579.25
819.194	90934.25
819.446	91079.25
819.698	91336.25
819.95	91704.25
820.202	92216.25
820.455	92748.25
820.707	92988.25
820.959	93058.25
821.211	93032.25
821.462	92671.25
821.714	92401.25
821.966	92028.25
822.218	91647.25
822.47	91145.25
822.722	90887.25
822.973	90533.25
823.225	90366.25
823.476	90266.25
823.728	90117.25
823.979	90104.25
824.231	90225.25
824.482	90283.25
824.734	90424.25
824.985	90483.25
825.236	90533.25
825.487	90219.25
825.739	90085.25
825.99	89520.25
826.241	89110.25
826.492	88752.25
826.743	88182.25
826.994	87934.25
827.245	87570.25
827.496	87349.25
827.747	87037.25
827.997	87162.25
828.248	87386.25
828.499	87318.25
828.75	87288.25
829	87363.25
829.251	87296.25
829.501	87162.25
829.752	87007.25
830.002	86496.25
830.253	85797.25
830.503	85320.25
830.753	84751.25
831.004	84429.25
831.254	84002.25
831.504	83887.25
831.754	83659.25
832.004	83494.25
832.254	83662.25
832.504	83813.25
832.754	83797.25
833.004	83386.25
833.254	83335.25
833.504	83261.25
833.754	82987.25
834.003	82665.25
834.253	82310.25
834.503	81918.25
834.752	81165.25
835.002	80779.25
835.252	80654.25
835.501	80213.25
835.75	79861.25
836	79811.25
836.249	79620.25
836.499	79550.25
836.748	79351.25
836.997	79306.25
837.246	79653.25
837.495	80123.25
837.744	80386.25
837.993	80752.25
838.242	81296.25
838.491	80901.25
838.74	80088.25
838.989	78927.25
839.238	78414.25
839.487	77540.25
839.736	77014.25
839.984	76816.25
840.233	76333.25
840.482	75981.25
840.73	75558.25
840.979	75433.25
841.227	75298.25
841.476	74977.25
841.724	74624.25
841.972	74471.25
842.221	74409.25
842.469	73977.25
842.717	73826.25
842.965	73568.25
843.213	73167.25
843.461	73153.25
843.71	72532.25
843.958	72375.25
844.205	72230.25
844.453	72028.25
844.701	71973.25
844.949	71986.25
845.197	71557.25
845.445	71814.25
845.692	72019.25
845.94	71918.25
846.188	71951.25
846.435	71834.25
846.683	71600.25
846.93	71322.25
847.178	70819.25
847.425	70136.25
847.672	69816.25
847.92	69202.25
848.167	68633.25
848.414	68118.25
848.661	67493.25
848.908	67176.25
849.155	67111.25
849.402	67053.25
849.649	67041.25
849.896	67095.25
850.143	67553.25
850.39	68017.25
850.637	67799.25
850.884	67725.25
851.131	67688.25
851.377	67165.25
851.624	67401.25
851.87	66872.25
852.117	66581.25
852.364	66114.25
852.61	66008.25
852.856	66015.25
853.103	65403.25
853.349	65264.25
853.595	65098.25
853.842	64647.25
854.088	64567.25
854.334	64606.25
854.58	64402.25
854.826	64088.25
855.072	63764.25
855.318	63127.25
855.564	62379.25
855.81	62100.25
856.056	61786.25
856.302	60853.25
856.548	60624.25
856.793	60250.25
857.039	59867.25
857.285	59911.25
857.53	59819.25
857.776	59783.25
858.021	60025.25
858.267	60217.25
858.512	60512.25
858.758	60406.25
859.003	60429.25
859.248	60776.25
859.493	60364.25
859.739	60160.25
859.984	59965.25
860.229	59735.25
860.474	59348.25
860.719	58969.25
860.964	58551.25
861.209	58010.25
861.454	57791.25
861.699	57371.25
861.943	57297.25
862.188	56926.25
862.433	56806.25
862.678	56333.25
862.922	56383.25
863.167	56276.25
863.411	56125.25
863.656	55979.25
863.9	55809.25
864.145	55695.25
864.389	55300.25
864.634	55269.25
864.878	55216.25
865.122	54888.25
865.366	54662.25
865.61	54458.25
865.855	54362.25
866.099	54271.25
866.343	54006.25
866.587	54117.25
866.831	54044.25
867.074	53961.25
867.318	54038.25
867.562	53998.25
867.806	53997.25
868.05	53723.25
868.293	53636.25
868.537	53381.25
868.78	53352.25
869.024	53020.25
869.267	52445.25
869.511	52182.25
869.754	51877.25
869.998	51319.25
870.241	50981.25
870.484	50659.25
870.728	50337.25
870.971	50131.25
871.214	49791.25
871.457	49714.25
871.7	49660.25
871.943	49738.25
872.186	49830.25
872.429	49613.25
872.672	49770.25
872.915	49666.25
873.158	49557.25
873.4	49682.25
873.643	49381.25
873.886	49158.25
874.128	48924.25
874.371	48925.25
874.613	48880.25
874.856	48563.25
875.098	48481.25
875.341	48416.25
875.583	48251.25
875.825	48164.25
876.068	47893.25
876.31	47539.25
876.552	47093.25
876.794	46685.25
877.036	46187.25
877.278	46057.25
877.52	45703.25
877.762	45608.25
878.004	45500.25
878.246	45368.25
878.488	45542.25
878.73	45419.25
878.972	45246.25
879.213	45275.25
879.455	44971.25
879.697	44939.25
879.938	45072.25
880.18	44804.25
880.421	44665.25
880.663	44590.25
880.904	44393.25
881.145	44693.25
881.387	44765.25
881.628	44667.25
881.869	44502.25
882.11	44321.25
882.352	43995.25
882.593	44077.25
882.834	43871.25
883.075	43885.25
883.316	43567.25
883.557	43490.25
883.797	43190.25
884.038	42800.25
884.279	42369.25
884.52	41933.25
884.761	41489.25
885.001	41255.25
885.242	40952.25
885.482	40665.25
885.723	40515.25
885.963	40231.25
886.204	40083.25
886.444	39906.25
886.685	39818.25
886.925	39549.25
887.165	39345.25
887.405	39276.25
887.646	39148.25
887.886	39079.25
888.126	39103.25
888.366	39086.25
888.606	39094.25
888.846	39115.25
889.086	39063.25
889.326	39132.25
889.565	39092.25
889.805	38981.25
890.045	38855.25
890.285	38745.25
890.524	38646.25
890.764	38518.25
891.003	38255.25
891.243	37983.25
891.482	37580.25
891.722	37376.25
891.961	36986.25
892.201	36881.25
892.44	36593.25
892.679	36522.25
892.918	36274.25
893.158	36164.25
893.397	36258.25
893.636	36095.25
893.875	35808.25
894.114	35847.25
894.353	35472.25
894.592	35511.25
894.831	35385.25
895.069	35159.25
895.308	34860.25
895.547	34671.25
895.786	34584.25
896.024	34401.25
896.263	34465.25
896.501	34362.25
896.74	34260.25
896.978	34188.25
897.217	34275.25
897.455	33955.25
897.694	33911.25
897.932	33802.25
898.17	33745.25
898.408	33588.25
898.646	33466.25
898.885	33413.25
899.123	33131.25
899.361	32900.25
899.599	32555.25
899.837	32433.25
900.075	32342.25
900.312	32085.25
900.55	31863.25
900.788	31589.25
901.026	31316.25
901.263	30999.25
901.501	30861.25
901.739	30618.25
901.976	30448.25
902.214	30341.25
902.451	30282.25
902.689	30162.25
902.926	30159.25
903.163	29973.25
903.401	30068.25
903.638	30039.25
903.875	30042.25
904.112	29955.25
904.349	30005.25
904.586	29824.25
904.823	29655.25
905.06	29577.25
905.297	29406.25
905.534	29177.25
905.771	28844.25
906.008	28760.25
906.245	28668.25
906.481	28405.25
906.718	28296.25
906.955	28203.25
907.191	28052.25
907.428	27814.25
907.664	27817.25
907.901	27648.25
908.137	27555.25
908.374	27432.25
908.61	27347.25
908.846	27259.25
909.083	27065.25
909.319	26836.25
909.555	26705.25
909.791	26484.25
910.027	26406.25
910.263	26045.25
910.499	25858.25
910.735	25642.25
910.971	25554.25
911.207	25331.25
911.443	25173.25
911.678	25165.25
911.914	25063.25
912.15	25087.25
912.385	24960.25
912.621	24958.25
912.857	24895.25
913.092	24787.25
913.328	24875.25
913.563	24756.25
913.798	24713.25
914.034	24672.25
914.269	24673.25
914.504	24546.25
914.739	24455.25
914.975	24172.25
915.21	24066.25
915.445	23901.25
915.68	23732.25
915.915	23478.25
916.15	23250.25
916.384	23134.25
916.619	22842.25
916.854	22622.25
917.089	22506.25
917.324	22373.25
917.558	22252.25
917.793	22115.25
918.028	22005.25
918.262	21979.25
918.497	21883.25
918.731	21890.25
918.965	21807.25
919.2	21802.25
919.434	21728.25
919.668	21658.25
919.903	21678.25
920.137	21496.25
920.371	21406.25
920.605	21294.25
920.839	21178.25
921.073	21019.25
921.307	20887.25
921.541	20633.25
921.775	20637.25
922.009	20533.25
922.243	20355.25
922.476	20316.25
922.71	20339.25
922.944	20395.25
923.177	20293.25
923.411	20296.25
923.644	20208.25
923.878	20150.25
924.111	20102.25
924.345	20032.25
924.578	19927.25
924.811	19824.25
925.045	19700.25
925.278	19474.25
925.511	19479.25
925.744	19219.25
925.977	19116.25
926.21	19098.25
926.443	18830.25
926.676	18617.25
926.909	18533.25
927.142	18392.25
927.375	18267.25
927.608	18209.25
927.841	18102.25
928.073	18072.25
928.306	18030.25
928.539	17889.25
928.771	17977.25
929.004	17908.25
929.236	17944.25
929.469	17953.25
929.701	17882.25
929.933	17877.25
930.166	17958.25
930.398	17895.25
930.63	17712.25
930.862	17706.25
931.094	17629.25
931.327	17468.25
931.559	17408.25
931.791	17278.25
932.023	17164.25
932.255	17032.25
932.486	16851.25
932.718	16859.25
932.95	16740.25
933.182	16606.25
933.413	16560.25
933.645	16453.25
933.877	16345.25
934.108	16316.25
934.34	16285.25
934.571	16212.25
934.803	16147.25
935.034	16039.25
935.265	16065.25
935.497	15918.25
935.728	15950.25
935.959	15789.25
936.19	15691.25
936.422	15710.25
936.653	15612.25
936.884	15482.25
937.115	15395.25
937.346	15280.25
937.577	15219.25
937.807	15122.25
938.038	15051.25
938.269	15005.25
938.5	14947.25
938.73	14916.25
938.961	14980.25
939.192	14981.25
939.422	14905.25
939.653	14926.25
939.883	14903.25
940.114	14861.25
940.344	14732.25
940.574	14708.25
940.805	14561.25
941.035	14484.25
941.265	14375.25
941.495	14390.25
941.726	14284.25
941.956	14149.25
942.186	14076.25
942.416	13876.25
942.646	13703.25
942.876	13618.25
943.105	13544.25
943.335	13475.25
943.565	13435.25
943.795	13234.25
944.024	13096.25
944.254	13052.25
944.484	13012.25
944.713	12921.25
944.943	12872.25
945.172	12886.25
945.402	12736.25
945.631	12743.25
945.86	12700.25
946.09	12733.25
946.319	12692.25
946.548	12677.25
946.777	12686.25
947.006	12657.25
947.235	12550.25
947.465	12502.25
947.694	12410.25
947.922	12343.25
948.151	12181.25
948.38	12062.25
948.609	11990.25
948.838	11910.25
949.067	11910.25
949.295	11814.25
949.524	11680.25
949.752	11512.25
949.981	11548.25
950.21	11480.25
950.438	11432.25
950.666	11387.25
950.895	11301.25
951.123	11209.25
951.351	11166.25
951.58	11111.25
951.808	11041.25
952.036	10950.25
952.264	10952.25
952.492	10888.25
952.72	10791.25
952.948	10704.25
953.176	10632.25
953.404	10638.25
953.632	10472.25
953.86	10358.25
954.088	10323.25
954.315	10213.25
954.543	10171.25
954.771	10144.25
954.998	10129.25
955.226	10113.25
955.453	9988.25
955.681	10015.25
955.908	9933.25
956.135	9991.25
956.363	9926.25
956.59	9924.25
956.817	9835.25
957.045	9845.25
957.272	9762.25
957.499	9723.25
957.726	9718.25
957.953	9636.25
958.18	9609.25
958.407	9593.25
958.634	9510.25
958.861	9364.25
959.087	9352.25
959.314	9295.25
959.541	9228.25
959.767	9164.25
959.994	9161.25
960.221	9028.25
960.447	8862.25
960.674	8868.25
960.9	8829.25
961.127	8776.25
961.353	8768.25
961.579	8638.25
961.806	8624.25
962.032	8558.25
962.258	8486.25
962.484	8487.25
962.71	8434.25
962.936	8398.25
963.162	8411.25
963.388	8368.25
963.614	8408.25
963.84	8354.25
964.066	8352.25
964.292	8313.25
964.518	8240.25
964.743	8212.25
964.969	8185.25
965.195	8186.25
965.42	8067.25
965.646	8039.25
965.871	8027.25
966.097	8015.25
966.322	7996.25
966.547	7906.25
966.773	7870.25
966.998	7790.25
967.223	7740.25
967.448	7713.25
967.674	7651.25
967.899	7620.25
968.124	7618.25
968.349	7623.25
968.574	7481.25
968.799	7420.25
969.024	7398.25
969.248	7358.25
969.473	7339.25
969.698	7294.25
969.923	7218.25
970.147	7230.25
970.372	7124.25
970.596	7135.25
970.821	7117.25
971.046	7116.25
971.27	7012.25
971.494	6942.25
971.719	6804.25
971.943	6837.25
972.167	6823.25
972.392	6813.25
972.616	6742.25
972.84	6686.25
973.064	6696.25
973.288	6619.25
973.512	6631.25
973.736	6604.25
973.96	6571.25
974.184	6492.25
974.408	6554.25
974.631	6516.25
974.855	6479.25
975.079	6470.25
975.303	6433.25
975.526	6385.25
975.75	6369.25
975.973	6337.25
976.197	6254.25
976.42	6288.25
976.644	6282.25
976.867	6134.25
977.09	6155.25
977.313	6110.25
977.537	6119.25
977.76	6070.25
977.983	5976.25
978.206	5951.25
978.429	5911.25
978.652	5878.25
978.875	5811.25
979.098	5789.25
979.321	5738.25
979.544	5737.25
979.767	5675.25
979.989	5654.25
980.212	5613.25
980.435	5575.25
980.657	5495.25
980.88	5505.25
981.102	5526.25
981.325	5436.25
981.547	5454.25
981.77	5416.25
981.992	5390.25
982.214	5376.25
982.437	5287.25
982.659	5305.25
982.881	5321.25
983.103	5303.25
983.325	5285.25
983.547	5207.25
983.769	5221.25
983.991	5151.25
984.213	5127.25
984.435	5110.25
984.657	5094.25
984.879	5078.25
985.1	4997.25
985.322	5033.25
985.544	4945.25
985.765	4992.25
985.987	4939.25
986.208	4871.25
986.43	4887.25
986.651	4862.25
986.873	4840.25
987.094	4822.25
987.315	4757.25
987.536	4747.25
987.758	4724.25
987.979	4701.25
988.2	4659.25
988.421	4613.25
988.642	4608.25
988.863	4515.25
989.084	4491.25
989.305	4483.25
989.526	4438.25
989.747	4464.25
989.967	4438.25
990.188	4372.25
990.409	4340.25
990.629	4357.25
990.85	4299.25
991.071	4280.25
991.291	4239.25
991.512	4208.25
991.732	4199.25
991.952	4217.25
992.173	4166.25
992.393	4145.25
992.613	4127.25
992.834	4163.25
993.054	4160.25
993.274	4115.25
993.494	4071.25
993.714	4056.25
993.934	4044.25
994.154	4095.25
994.374	4018.25
994.594	3996.25
994.813	3984.25
995.033	3991.25
995.253	3986.25
995.473	3930.25
995.692	3889.25
995.912	3902.25
996.131	3831.25
996.351	3850.25
996.57	3791.25
996.79	3741.25
997.009	3736.25
997.228	3722.25
997.448	3665.25
997.667	3615.25
997.886	3594.25
998.105	3574.25
998.325	3579.25
998.544	3531.25
998.763	3488.25
998.982	3494.25
999.201	3374.25
999.419	3440.25
999.638	3443.25
999.857	3394.25
1000.076	3370.25
1000.295	3346.25
1000.513	3386.25
1000.732	3348.25
1000.95	3323.25
1001.169	3308.25
1001.388	3297.25
1001.606	3299.25
1001.824	3261.25
1002.043	3243.25
1002.261	3275.25
1002.479	3228.25
1002.698	3236.25
1002.916	3205.25
1003.134	3187.25
1003.352	3152.25
1003.57	3124.25
1003.788	3162.25
1004.006	3115.25
1004.224	3154.25
1004.442	3082.25
1004.66	3084.25
1004.878	3099.25
1005.095	3054.25
1005.313	3102.25
1005.531	3053.25
1005.748	3048.25
1005.966	3126.25
1006.184	2994.25
1006.401	3001.25
1006.618	2978.25
1006.836	2997.25
1007.053	2979.25
1007.271	2962.25
1007.488	2963.25
1007.705	2949.25
1007.922	2943.25
1008.139	2892.25
1008.357	2949.25
1008.574	2920.25
1008.791	2955.25
1009.008	3040.25
1009.225	2977.25
1009.441	2999.25
1009.658	3016.25
1009.875	2992.25
1010.092	3047.25
1010.309	2997.25
1010.525	2985.25
1010.742	2906.25
1010.958	2877.25
1011.175	2868.25
1011.391	2856.25
1011.608	2843.25
1011.824	2807.25
1012.041	2776.25
1012.257	2761.25
1012.473	2739.25
1012.689	2709.25
1012.906	2690.25
1013.122	2676.25
1013.338	2661.25
1013.554	2672.25
1013.77	2683.25
1013.986	2705.25
1014.202	2744.25
1014.418	2734.25
1014.634	2788.25
1014.849	2826.25
1015.065	2885.25
1015.281	2820.25
1015.496	2887.25
1015.712	2829.25
1015.928	2774.25
1016.143	2727.25
1016.359	2676.25
1016.574	2630.25
1016.79	2590.25
1017.005	2526.25
1017.22	2440.25
1017.435	2397.25
1017.651	2389.25
1017.866	2348.25
1018.081	2285.25
1018.296	2262.25
1018.511	2234.25
1018.726	2246.25
1018.941	2181.25
1019.156	2197.25
1019.371	2191.25
1019.586	2201.25
1019.801	2159.25
1020.015	2152.25
1020.23	2109.25
1020.445	2114.25
1020.659	2066.25
1020.874	2059.25
1021.088	2021.25
1021.303	1996.25
1021.517	1991.25
1021.732	1931.25
1021.946	1914.25
1022.16	1946.25
1022.375	1883.25
1022.589	1857.25
1022.803	1825.25
1023.017	1798.25
1023.231	1724.25
1023.445	1740.25
1023.659	1650.25
1023.873	1645.25
1024.087	1613.25
1024.301	1603.25
1024.515	1588.25
1024.729	1562.25
1024.942	1539.25
1025.156	1491.25
1025.37	1474.25
1025.583	1456.25
1025.797	1421.25
1026.01	1410.25
1026.224	1357.25
1026.437	1349.25
1026.651	1274.25
1026.864	1217.25
1027.077	1222.25
1027.291	1171.25
1027.504	1167.25
1027.717	1135.25
1027.93	1088.25
1028.143	1072.25
1028.356	1031.25
1028.569	994.25
1028.782	939.25
1028.995	-1.75
1029.208	-5.75
1029.421	-0.75
1029.634	-1.75
