Data from QEP037381__508__16-07-34-084.txt Node

Date: Mon Mar 14 16:07:34 EDT 2022
User: dcclab
Spectrometer: QEP03738
Trigger mode: 4
Integration Time (sec): 2.500000E0
Scans to average: 1
Electric dark correction enabled: true
Nonlinearity correction enabled: false
Boxcar width: 0
XAxis mode: Wavelengths
Number of Pixels in Spectrum: 1044
>>>>>Begin Spectral Data<<<<<
783.959	12.12
784.218	0.12
784.476	-1.88
784.734	1.12
784.992	253.12
785.251	229.12
785.509	227.12
785.767	208.12
786.025	223.12
786.283	210.12
786.541	209.12
786.798	201.12
787.056	206.12
787.314	179.12
787.572	211.12
787.83	197.12
788.087	207.12
788.345	185.12
788.602	187.12
788.86	191.12
789.117	182.12
789.375	173.12
789.632	179.12
789.89	178.12
790.147	192.12
790.404	193.12
790.661	189.12
790.919	210.12
791.176	192.12
791.433	189.12
791.69	209.12
791.947	205.12
792.204	185.12
792.461	202.12
792.718	209.12
792.974	213.12
793.231	211.12
793.488	235.12
793.745	222.12
794.001	245.12
794.258	260.12
794.514	249.12
794.771	265.12
795.027	273.12
795.284	275.12
795.54	294.12
795.797	299.12
796.053	317.12
796.309	346.12
796.565	376.12
796.822	403.12
797.078	473.12
797.334	531.12
797.59	622.12
797.846	776.12
798.102	971.12
798.358	1291.12
798.614	1799.12
798.869	2619.12
799.125	3857.12
799.381	5594.12
799.637	7984.12
799.892	10726.12
800.148	13806.12
800.403	16732.12
800.659	19314.12
800.914	21211.12
801.17	22628.12
801.425	23666.12
801.68	24326.12
801.936	24793.12
802.191	25400.12
802.446	25949.12
802.701	26556.12
802.957	27118.12
803.212	27529.12
803.467	28254.12
803.722	28822.12
803.977	29320.12
804.232	30082.12
804.486	30552.12
804.741	31065.12
804.996	31704.12
805.251	32342.12
805.505	32823.12
805.76	33470.12
806.015	33999.12
806.269	34512.12
806.524	34870.12
806.778	35283.12
807.033	35521.12
807.287	35951.12
807.541	36469.12
807.796	36988.12
808.05	37458.12
808.304	37864.12
808.558	38031.12
808.812	38286.12
809.066	38659.12
809.32	38848.12
809.574	39231.12
809.828	39406.12
810.082	39760.12
810.336	40014.12
810.59	40542.12
810.844	40842.12
811.097	41504.12
811.351	42195.12
811.605	42731.12
811.858	43545.12
812.112	44054.12
812.365	44801.12
812.619	45698.12
812.872	46244.12
813.126	46953.12
813.379	47650.12
813.632	48145.12
813.885	48794.12
814.139	49640.12
814.392	50371.12
814.645	51190.12
814.898	52065.12
815.151	53053.12
815.404	53958.12
815.657	55082.12
815.91	55852.12
816.163	56493.12
816.416	57020.12
816.668	57579.12
816.921	57948.12
817.174	58211.12
817.426	58292.12
817.679	58093.12
817.931	58212.12
818.184	58270.12
818.436	58282.12
818.689	58340.12
818.941	58429.12
819.194	58579.12
819.446	58838.12
819.698	59233.12
819.95	59450.12
820.202	59905.12
820.455	60037.12
820.707	60260.12
820.959	60292.12
821.211	60185.12
821.462	60010.12
821.714	59996.12
821.966	59803.12
822.218	59615.12
822.47	59118.12
822.722	59008.12
822.973	58800.12
823.225	58669.12
823.476	58597.12
823.728	58598.12
823.979	58632.12
824.231	58821.12
824.482	58888.12
824.734	59074.12
824.985	58830.12
825.236	58797.12
825.487	58683.12
825.739	58494.12
825.99	58302.12
826.241	58273.12
826.492	57902.12
826.743	57610.12
826.994	57540.12
827.245	57248.12
827.496	57211.12
827.747	57270.12
827.997	56997.12
828.248	57263.12
828.499	57397.12
828.75	57352.12
829	57303.12
829.251	57161.12
829.501	57185.12
829.752	56808.12
830.002	56728.12
830.253	56243.12
830.503	56086.12
830.753	55808.12
831.004	55486.12
831.254	55126.12
831.504	55104.12
831.754	54945.12
832.004	54904.12
832.254	54877.12
832.504	54919.12
832.754	55151.12
833.004	55085.12
833.254	54832.12
833.504	54959.12
833.754	54625.12
834.003	54635.12
834.253	54240.12
834.503	54009.12
834.752	53644.12
835.002	53470.12
835.252	53328.12
835.501	53170.12
835.75	52896.12
836	52909.12
836.249	52867.12
836.499	52854.12
836.748	52863.12
836.997	52690.12
837.246	53091.12
837.495	53333.12
837.744	53903.12
837.993	54641.12
838.242	54952.12
838.491	54894.12
838.74	54201.12
838.989	53070.12
839.238	52257.12
839.487	51580.12
839.736	51597.12
839.984	51164.12
840.233	50989.12
840.482	50546.12
840.73	50370.12
840.979	50268.12
841.227	50143.12
841.476	49873.12
841.724	49753.12
841.972	49575.12
842.221	49503.12
842.469	49243.12
842.717	49109.12
842.965	49092.12
843.213	48848.12
843.461	48652.12
843.71	48587.12
843.958	48325.12
844.205	48236.12
844.453	48233.12
844.701	48151.12
844.949	48104.12
845.197	47921.12
845.445	48067.12
845.692	48157.12
845.94	48232.12
846.188	48218.12
846.435	48044.12
846.683	47848.12
846.93	47629.12
847.178	47394.12
847.425	47092.12
847.672	46725.12
847.92	46504.12
848.167	46029.12
848.414	45765.12
848.661	45255.12
848.908	45174.12
849.155	44924.12
849.402	45101.12
849.649	45288.12
849.896	45486.12
850.143	45724.12
850.39	45956.12
850.637	46038.12
850.884	45949.12
851.131	45882.12
851.377	45731.12
851.624	45367.12
851.87	45259.12
852.117	45090.12
852.364	44787.12
852.61	44730.12
852.856	44505.12
853.103	44471.12
853.349	44361.12
853.595	44171.12
853.842	43811.12
854.088	43670.12
854.334	43614.12
854.58	43391.12
854.826	43244.12
855.072	42958.12
855.318	42620.12
855.564	42208.12
855.81	41855.12
856.056	41405.12
856.302	41152.12
856.548	40880.12
856.793	40693.12
857.039	40594.12
857.285	40314.12
857.53	40338.12
857.776	40359.12
858.021	40369.12
858.267	40683.12
858.512	40678.12
858.758	40887.12
859.003	40747.12
859.248	40734.12
859.493	40617.12
859.739	40502.12
859.984	40386.12
860.229	40206.12
860.474	39787.12
860.719	39825.12
860.964	39514.12
861.209	39208.12
861.454	39068.12
861.699	38767.12
861.943	38437.12
862.188	38424.12
862.433	38215.12
862.678	38190.12
862.922	38039.12
863.167	38083.12
863.411	37905.12
863.656	37773.12
863.9	37758.12
864.145	37577.12
864.389	37322.12
864.634	36999.12
864.878	37119.12
865.122	36933.12
865.366	36810.12
865.61	36716.12
865.855	36677.12
866.099	36681.12
866.343	36622.12
866.587	36416.12
866.831	36582.12
867.074	36433.12
867.318	36506.12
867.562	36467.12
867.806	36582.12
868.05	36369.12
868.293	36376.12
868.537	36231.12
868.78	36014.12
869.024	35863.12
869.267	35616.12
869.511	35214.12
869.754	35018.12
869.998	34650.12
870.241	34105.12
870.484	34056.12
870.728	33839.12
870.971	33671.12
871.214	33516.12
871.457	33456.12
871.7	33416.12
871.943	33482.12
872.186	33515.12
872.429	33666.12
872.672	33639.12
872.915	33617.12
873.158	33401.12
873.4	33453.12
873.643	33216.12
873.886	33134.12
874.128	33054.12
874.371	32850.12
874.613	32903.12
874.856	32710.12
875.098	32571.12
875.341	32635.12
875.583	32362.12
875.825	32327.12
876.068	32215.12
876.31	31897.12
876.552	31657.12
876.794	31379.12
877.036	31171.12
877.278	30929.12
877.52	30936.12
877.762	30727.12
878.004	30521.12
878.246	30476.12
878.488	30493.12
878.73	30534.12
878.972	30397.12
879.213	30519.12
879.455	30418.12
879.697	30303.12
879.938	30191.12
880.18	30140.12
880.421	30059.12
880.663	30145.12
880.904	30387.12
881.145	30510.12
881.387	30458.12
881.628	30343.12
881.869	30118.12
882.11	29809.12
882.352	29612.12
882.593	29501.12
882.834	29398.12
883.075	29321.12
883.316	29292.12
883.557	29142.12
883.797	28939.12
884.038	28645.12
884.279	28429.12
884.52	28066.12
884.761	27730.12
885.001	27574.12
885.242	27237.12
885.482	27202.12
885.723	27013.12
885.963	26867.12
886.204	26747.12
886.444	26711.12
886.685	26753.12
886.925	26408.12
887.165	26317.12
887.405	26072.12
887.646	26233.12
887.886	25942.12
888.126	25980.12
888.366	25979.12
888.606	26018.12
888.846	26055.12
889.086	26132.12
889.326	26060.12
889.565	26043.12
889.805	25929.12
890.045	25889.12
890.285	25858.12
890.524	25713.12
890.764	25769.12
891.003	25453.12
891.243	25171.12
891.482	25089.12
891.722	24781.12
891.961	24670.12
892.201	24616.12
892.44	24372.12
892.679	24300.12
892.918	24184.12
893.158	24232.12
893.397	24047.12
893.636	24062.12
893.875	23813.12
894.114	23868.12
894.353	23637.12
894.592	23610.12
894.831	23469.12
895.069	23399.12
895.308	23205.12
895.547	23033.12
895.786	22879.12
896.024	22978.12
896.263	22878.12
896.501	22714.12
896.74	22798.12
896.978	22710.12
897.217	22739.12
897.455	22768.12
897.694	22534.12
897.932	22481.12
898.17	22404.12
898.408	22349.12
898.646	22170.12
898.885	22159.12
899.123	22003.12
899.361	21782.12
899.599	21711.12
899.837	21430.12
900.075	21474.12
900.312	21297.12
900.55	21031.12
900.788	20895.12
901.026	20523.12
901.263	20499.12
901.501	20374.12
901.739	20270.12
901.976	20101.12
902.214	20043.12
902.451	19920.12
902.689	19850.12
902.926	19819.12
903.163	19798.12
903.401	19828.12
903.638	19863.12
903.875	19805.12
904.112	19631.12
904.349	19783.12
904.586	19664.12
904.823	19476.12
905.06	19375.12
905.297	19311.12
905.534	19153.12
905.771	19071.12
906.008	18846.12
906.245	18769.12
906.481	18670.12
906.718	18578.12
906.955	18364.12
907.191	18389.12
907.428	18270.12
907.664	18262.12
907.901	18096.12
908.137	18036.12
908.374	18021.12
908.61	17956.12
908.846	17825.12
909.083	17786.12
909.319	17728.12
909.555	17513.12
909.791	17334.12
910.027	17231.12
910.263	17140.12
910.499	17015.12
910.735	16769.12
910.971	16692.12
911.207	16692.12
911.443	16467.12
911.678	16502.12
911.914	16512.12
912.15	16350.12
912.385	16384.12
912.621	16348.12
912.857	16292.12
913.092	16193.12
913.328	16273.12
913.563	16188.12
913.798	16221.12
914.034	16238.12
914.269	16154.12
914.504	16120.12
914.739	15993.12
914.975	15892.12
915.21	15767.12
915.445	15696.12
915.68	15598.12
915.915	15415.12
916.15	15235.12
916.384	15054.12
916.619	14827.12
916.854	14799.12
917.089	14757.12
917.324	14599.12
917.558	14428.12
917.793	14415.12
918.028	14335.12
918.262	14241.12
918.497	14257.12
918.731	14333.12
918.965	14299.12
919.2	14174.12
919.434	14270.12
919.668	14195.12
919.903	14057.12
920.137	14059.12
920.371	13961.12
920.605	13875.12
920.839	13795.12
921.073	13706.12
921.307	13611.12
921.541	13527.12
921.775	13385.12
922.009	13424.12
922.243	13435.12
922.476	13330.12
922.71	13332.12
922.944	13315.12
923.177	13251.12
923.411	13319.12
923.644	13270.12
923.878	13097.12
924.111	13060.12
924.345	13073.12
924.578	13001.12
924.811	12964.12
925.045	12913.12
925.278	12810.12
925.511	12686.12
925.744	12711.12
925.977	12495.12
926.21	12449.12
926.443	12403.12
926.676	12232.12
926.909	12093.12
927.142	12087.12
927.375	11977.12
927.608	11957.12
927.841	11791.12
928.073	11823.12
928.306	11795.12
928.539	11730.12
928.771	11763.12
929.004	11595.12
929.236	11687.12
929.469	11677.12
929.701	11679.12
929.933	11686.12
930.166	11702.12
930.398	11607.12
930.63	11651.12
930.862	11679.12
931.094	11552.12
931.327	11465.12
931.559	11435.12
931.791	11364.12
932.023	11274.12
932.255	11276.12
932.486	11023.12
932.718	11019.12
932.95	11041.12
933.182	10908.12
933.413	10939.12
933.645	10797.12
933.877	10768.12
934.108	10737.12
934.34	10674.12
934.571	10618.12
934.803	10570.12
935.034	10538.12
935.265	10521.12
935.497	10460.12
935.728	10381.12
935.959	10329.12
936.19	10377.12
936.422	10380.12
936.653	10262.12
936.884	10238.12
937.115	10095.12
937.346	10132.12
937.577	9988.12
937.807	9921.12
938.038	9893.12
938.269	9892.12
938.5	9846.12
938.73	9830.12
938.961	9852.12
939.192	9748.12
939.422	9836.12
939.653	9761.12
939.883	9814.12
940.114	9708.12
940.344	9780.12
940.574	9690.12
940.805	9723.12
941.035	9616.12
941.265	9514.12
941.495	9511.12
941.726	9367.12
941.956	9329.12
942.186	9260.12
942.416	9227.12
942.646	9147.12
942.876	9035.12
943.105	8907.12
943.335	8928.12
943.565	8875.12
943.795	8743.12
944.024	8749.12
944.254	8650.12
944.484	8620.12
944.713	8601.12
944.943	8546.12
945.172	8493.12
945.402	8475.12
945.631	8413.12
945.86	8389.12
946.09	8445.12
946.319	8420.12
946.548	8419.12
946.777	8366.12
947.006	8337.12
947.235	8346.12
947.465	8301.12
947.694	8270.12
947.922	8222.12
948.151	8220.12
948.38	8046.12
948.609	7979.12
948.838	7997.12
949.067	7920.12
949.295	7859.12
949.524	7779.12
949.752	7819.12
949.981	7746.12
950.21	7698.12
950.438	7626.12
950.666	7568.12
950.895	7561.12
951.123	7497.12
951.351	7479.12
951.58	7422.12
951.808	7469.12
952.036	7348.12
952.264	7402.12
952.492	7262.12
952.72	7258.12
952.948	7189.12
953.176	7175.12
953.404	7093.12
953.632	7075.12
953.86	7065.12
954.088	6915.12
954.315	6905.12
954.543	6877.12
954.771	6843.12
954.998	6790.12
955.226	6782.12
955.453	6822.12
955.681	6690.12
955.908	6677.12
956.135	6719.12
956.363	6641.12
956.59	6657.12
956.817	6659.12
957.045	6595.12
957.272	6677.12
957.499	6615.12
957.726	6541.12
957.953	6503.12
958.18	6498.12
958.407	6464.12
958.634	6454.12
958.861	6410.12
959.087	6355.12
959.314	6287.12
959.541	6264.12
959.767	6249.12
959.994	6203.12
960.221	6155.12
960.447	6095.12
960.674	6015.12
960.9	5951.12
961.127	5980.12
961.353	5917.12
961.579	5899.12
961.806	5855.12
962.032	5845.12
962.258	5765.12
962.484	5704.12
962.71	5755.12
962.936	5709.12
963.162	5705.12
963.388	5645.12
963.614	5642.12
963.84	5649.12
964.066	5680.12
964.292	5587.12
964.518	5605.12
964.743	5560.12
964.969	5568.12
965.195	5534.12
965.42	5493.12
965.646	5457.12
965.871	5409.12
966.097	5450.12
966.322	5359.12
966.547	5378.12
966.773	5334.12
966.998	5317.12
967.223	5317.12
967.448	5307.12
967.674	5235.12
967.899	5166.12
968.124	5171.12
968.349	5162.12
968.574	5140.12
968.799	5055.12
969.024	5063.12
969.248	5048.12
969.473	4994.12
969.698	4972.12
969.923	4943.12
970.147	4928.12
970.372	4900.12
970.596	4874.12
970.821	4853.12
971.046	4751.12
971.27	4821.12
971.494	4763.12
971.719	4667.12
971.943	4634.12
972.167	4625.12
972.392	4620.12
972.616	4573.12
972.84	4543.12
973.064	4538.12
973.288	4487.12
973.512	4466.12
973.736	4477.12
973.96	4481.12
974.184	4488.12
974.408	4435.12
974.631	4383.12
974.855	4424.12
975.079	4365.12
975.303	4347.12
975.526	4389.12
975.75	4318.12
975.973	4291.12
976.197	4326.12
976.42	4263.12
976.644	4264.12
976.867	4240.12
977.09	4176.12
977.313	4137.12
977.537	4143.12
977.76	4081.12
977.983	4111.12
978.206	4031.12
978.429	4014.12
978.652	3989.12
978.875	4007.12
979.098	3910.12
979.321	3958.12
979.544	3850.12
979.767	3835.12
979.989	3843.12
980.212	3851.12
980.435	3843.12
980.657	3774.12
980.88	3757.12
981.102	3731.12
981.325	3737.12
981.547	3693.12
981.77	3685.12
981.992	3676.12
982.214	3650.12
982.437	3618.12
982.659	3620.12
982.881	3602.12
983.103	3590.12
983.325	3591.12
983.547	3558.12
983.769	3537.12
983.991	3522.12
984.213	3501.12
984.435	3498.12
984.657	3448.12
984.879	3440.12
985.1	3429.12
985.322	3443.12
985.544	3422.12
985.765	3376.12
985.987	3380.12
986.208	3370.12
986.43	3357.12
986.651	3339.12
986.873	3292.12
987.094	3253.12
987.315	3271.12
987.536	3244.12
987.758	3221.12
987.979	3220.12
988.2	3196.12
988.421	3186.12
988.642	3145.12
988.863	3122.12
989.084	3092.12
989.305	3069.12
989.526	3053.12
989.747	3044.12
989.967	3049.12
990.188	2967.12
990.409	2944.12
990.629	2960.12
990.85	2970.12
991.071	2909.12
991.291	2900.12
991.512	2875.12
991.732	2863.12
991.952	2876.12
992.173	2851.12
992.393	2852.12
992.613	2807.12
992.834	2842.12
993.054	2804.12
993.274	2812.12
993.494	2799.12
993.714	2850.12
993.934	2807.12
994.154	2787.12
994.374	2798.12
994.594	2759.12
994.813	2720.12
995.033	2741.12
995.253	2761.12
995.473	2678.12
995.692	2698.12
995.912	2672.12
996.131	2620.12
996.351	2642.12
996.57	2617.12
996.79	2567.12
997.009	2572.12
997.228	2561.12
997.448	2522.12
997.667	2480.12
997.886	2493.12
998.105	2474.12
998.325	2450.12
998.544	2413.12
998.763	2416.12
998.982	2396.12
999.201	2368.12
999.419	2344.12
999.638	2372.12
999.857	2356.12
1000.076	2328.12
1000.295	2281.12
1000.513	2321.12
1000.732	2310.12
1000.95	2277.12
1001.169	2267.12
1001.388	2259.12
1001.606	2281.12
1001.824	2255.12
1002.043	2201.12
1002.261	2240.12
1002.479	2251.12
1002.698	2245.12
1002.916	2237.12
1003.134	2263.12
1003.352	2224.12
1003.57	2189.12
1003.788	2221.12
1004.006	2132.12
1004.224	2221.12
1004.442	2158.12
1004.66	2144.12
1004.878	2206.12
1005.095	2151.12
1005.313	2176.12
1005.531	2133.12
1005.748	2124.12
1005.966	2239.12
1006.184	2142.12
1006.401	2137.12
1006.618	2155.12
1006.836	2123.12
1007.053	2131.12
1007.271	2152.12
1007.488	2129.12
1007.705	2154.12
1007.922	2158.12
1008.139	2128.12
1008.357	2148.12
1008.574	2152.12
1008.791	2183.12
1009.008	2218.12
1009.225	2246.12
1009.441	2286.12
1009.658	2264.12
1009.875	2297.12
1010.092	2298.12
1010.309	2293.12
1010.525	2239.12
1010.742	2199.12
1010.958	2167.12
1011.175	2180.12
1011.391	2186.12
1011.608	2180.12
1011.824	2159.12
1012.041	2082.12
1012.257	2111.12
1012.473	2050.12
1012.689	2031.12
1012.906	2057.12
1013.122	2046.12
1013.338	2017.12
1013.554	2060.12
1013.77	2054.12
1013.986	2032.12
1014.202	2088.12
1014.418	2127.12
1014.634	2222.12
1014.849	2296.12
1015.065	2279.12
1015.281	2318.12
1015.496	2292.12
1015.712	2238.12
1015.928	2187.12
1016.143	2159.12
1016.359	2128.12
1016.574	2052.12
1016.79	1984.12
1017.005	1961.12
1017.22	1859.12
1017.435	1855.12
1017.651	1803.12
1017.866	1786.12
1018.081	1728.12
1018.296	1692.12
1018.511	1690.12
1018.726	1702.12
1018.941	1675.12
1019.156	1660.12
1019.371	1650.12
1019.586	1654.12
1019.801	1634.12
1020.015	1610.12
1020.23	1615.12
1020.445	1573.12
1020.659	1583.12
1020.874	1571.12
1021.088	1528.12
1021.303	1490.12
1021.517	1469.12
1021.732	1435.12
1021.946	1389.12
1022.16	1442.12
1022.375	1361.12
1022.589	1332.12
1022.803	1309.12
1023.017	1298.12
1023.231	1262.12
1023.445	1279.12
1023.659	1195.12
1023.873	1206.12
1024.087	1172.12
1024.301	1162.12
1024.515	1145.12
1024.729	1124.12
1024.942	1100.12
1025.156	1111.12
1025.37	1069.12
1025.583	1034.12
1025.797	1018.12
1026.01	1005.12
1026.224	970.12
1026.437	957.12
1026.651	917.12
1026.864	893.12
1027.077	901.12
1027.291	888.12
1027.504	858.12
1027.717	826.12
1027.93	798.12
1028.143	786.12
1028.356	760.12
1028.569	727.12
1028.782	669.12
1028.995	-0.88
1029.208	-2.88
1029.421	-4.88
1029.634	-2.88
