Data from QEP037381__522__16-08-11-585.txt Node

Date: Mon Mar 14 16:08:11 EDT 2022
User: dcclab
Spectrometer: QEP03738
Trigger mode: 4
Integration Time (sec): 2.500000E0
Scans to average: 1
Electric dark correction enabled: true
Nonlinearity correction enabled: false
Boxcar width: 0
XAxis mode: Wavelengths
Number of Pixels in Spectrum: 1044
>>>>>Begin Spectral Data<<<<<
783.959	10.25
784.218	-1.75
784.476	-2.75
784.734	-2.75
784.992	253.25
785.251	228.25
785.509	222.25
785.767	207.25
786.025	216.25
786.283	225.25
786.541	213.25
786.798	205.25
787.056	200.25
787.314	185.25
787.572	201.25
787.83	192.25
788.087	196.25
788.345	191.25
788.602	186.25
788.86	193.25
789.117	193.25
789.375	180.25
789.632	186.25
789.89	178.25
790.147	201.25
790.404	202.25
790.661	184.25
790.919	208.25
791.176	206.25
791.433	205.25
791.69	205.25
791.947	203.25
792.204	187.25
792.461	205.25
792.718	209.25
792.974	213.25
793.231	216.25
793.488	241.25
793.745	224.25
794.001	245.25
794.258	266.25
794.514	250.25
794.771	271.25
795.027	265.25
795.284	275.25
795.54	306.25
795.797	299.25
796.053	342.25
796.309	349.25
796.565	384.25
796.822	438.25
797.078	474.25
797.334	530.25
797.59	622.25
797.846	778.25
798.102	980.25
798.358	1303.25
798.614	1832.25
798.869	2662.25
799.125	3901.25
799.381	5632.25
799.637	8024.25
799.892	10749.25
800.148	13907.25
800.403	17011.25
800.659	19507.25
800.914	21527.25
801.17	22900.25
801.425	23770.25
801.68	24618.25
801.936	25057.25
802.191	25760.25
802.446	26288.25
802.701	26720.25
802.957	27398.25
803.212	27942.25
803.467	28655.25
803.722	29210.25
803.977	29784.25
804.232	30223.25
804.486	30792.25
804.741	31437.25
804.996	32099.25
805.251	32781.25
805.505	33193.25
805.76	33817.25
806.015	34296.25
806.269	34827.25
806.524	35310.25
806.778	35533.25
807.033	35977.25
807.287	36450.25
807.541	36909.25
807.796	37521.25
808.05	37910.25
808.304	38272.25
808.558	38508.25
808.812	38707.25
809.066	38917.25
809.32	39221.25
809.574	39672.25
809.828	39921.25
810.082	40142.25
810.336	40444.25
810.59	40998.25
810.844	41447.25
811.097	41846.25
811.351	42531.25
811.605	43226.25
811.858	43888.25
812.112	44726.25
812.365	45377.25
812.619	46111.25
812.872	46769.25
813.126	47500.25
813.379	48098.25
813.632	48607.25
813.885	49452.25
814.139	49969.25
814.392	50991.25
814.645	51697.25
814.898	52779.25
815.151	53674.25
815.404	54558.25
815.657	55538.25
815.91	56372.25
816.163	57209.25
816.416	57880.25
816.668	58066.25
816.921	58373.25
817.174	58814.25
817.426	58814.25
817.679	58888.25
817.931	58821.25
818.184	58850.25
818.436	59045.25
818.689	58730.25
818.941	59006.25
819.194	59154.25
819.446	59479.25
819.698	59801.25
819.95	60172.25
820.202	60275.25
820.455	60493.25
820.707	60921.25
820.959	61015.25
821.211	60872.25
821.462	60803.25
821.714	60613.25
821.966	60424.25
822.218	60153.25
822.47	59966.25
822.722	59779.25
822.973	59417.25
823.225	59443.25
823.476	59471.25
823.728	59205.25
823.979	59048.25
824.231	59337.25
824.482	59503.25
824.734	59451.25
824.985	59488.25
825.236	59536.25
825.487	59420.25
825.739	59119.25
825.99	58970.25
826.241	58840.25
826.492	58696.25
826.743	58505.25
826.994	58005.25
827.245	57861.25
827.496	57950.25
827.747	57625.25
827.997	57661.25
828.248	57775.25
828.499	57851.25
828.75	57871.25
829	57717.25
829.251	57744.25
829.501	57700.25
829.752	57475.25
830.002	57303.25
830.253	56992.25
830.503	56716.25
830.753	56445.25
831.004	55731.25
831.254	55708.25
831.504	55682.25
831.754	55573.25
832.004	55542.25
832.254	55413.25
832.504	55578.25
832.754	55593.25
833.004	55613.25
833.254	55532.25
833.504	55427.25
833.754	55138.25
834.003	55100.25
834.253	54776.25
834.503	54501.25
834.752	54316.25
835.002	54055.25
835.252	53876.25
835.501	53622.25
835.75	53410.25
836	53436.25
836.249	53443.25
836.499	53447.25
836.748	53288.25
836.997	53201.25
837.246	53562.25
837.495	53869.25
837.744	54667.25
837.993	55197.25
838.242	55582.25
838.491	55264.25
838.74	54644.25
838.989	53581.25
839.238	52866.25
839.487	52180.25
839.736	51886.25
839.984	51541.25
840.233	51341.25
840.482	50956.25
840.73	50926.25
840.979	50691.25
841.227	50555.25
841.476	50264.25
841.724	50104.25
841.972	50027.25
842.221	50097.25
842.469	49696.25
842.717	49710.25
842.965	49469.25
843.213	49468.25
843.461	49244.25
843.71	48888.25
843.958	48664.25
844.205	48651.25
844.453	48690.25
844.701	48550.25
844.949	48448.25
845.197	48614.25
845.445	48473.25
845.692	48663.25
845.94	48510.25
846.188	48604.25
846.435	48639.25
846.683	48391.25
846.93	48260.25
847.178	47842.25
847.425	47614.25
847.672	47336.25
847.92	46889.25
848.167	46449.25
848.414	46021.25
848.661	45820.25
848.908	45558.25
849.155	45518.25
849.402	45473.25
849.649	45767.25
849.896	45824.25
850.143	46030.25
850.39	46352.25
850.637	46385.25
850.884	46388.25
851.131	46144.25
851.377	46134.25
851.624	45849.25
851.87	45852.25
852.117	45358.25
852.364	45112.25
852.61	45040.25
852.856	44987.25
853.103	44799.25
853.349	44795.25
853.595	44590.25
853.842	44193.25
854.088	44143.25
854.334	44075.25
854.58	44030.25
854.826	43542.25
855.072	43276.25
855.318	43052.25
855.564	42670.25
855.81	42230.25
856.056	41984.25
856.302	41539.25
856.548	41315.25
856.793	41070.25
857.039	40968.25
857.285	40721.25
857.53	40711.25
857.776	40727.25
858.021	40859.25
858.267	40967.25
858.512	41114.25
858.758	41182.25
859.003	41117.25
859.248	41032.25
859.493	41064.25
859.739	40963.25
859.984	40878.25
860.229	40603.25
860.474	40326.25
860.719	39982.25
860.964	39819.25
861.209	39580.25
861.454	39317.25
861.699	39029.25
861.943	38923.25
862.188	38776.25
862.433	38670.25
862.678	38423.25
862.922	38402.25
863.167	38343.25
863.411	38210.25
863.656	38215.25
863.9	38109.25
864.145	37908.25
864.389	37779.25
864.634	37441.25
864.878	37376.25
865.122	37197.25
865.366	37129.25
865.61	37275.25
865.855	36915.25
866.099	36924.25
866.343	36935.25
866.587	36888.25
866.831	37020.25
867.074	36792.25
867.318	36769.25
867.562	36838.25
867.806	36841.25
868.05	36732.25
868.293	36649.25
868.537	36475.25
868.78	36375.25
869.024	36259.25
869.267	35984.25
869.511	35614.25
869.754	35267.25
869.998	34969.25
870.241	34624.25
870.484	34351.25
870.728	34166.25
870.971	34038.25
871.214	33797.25
871.457	33812.25
871.7	33781.25
871.943	33760.25
872.186	33755.25
872.429	33907.25
872.672	33677.25
872.915	33837.25
873.158	33626.25
873.4	33580.25
873.643	33566.25
873.886	33356.25
874.128	33297.25
874.371	33215.25
874.613	33217.25
874.856	33104.25
875.098	32841.25
875.341	32701.25
875.583	32810.25
875.825	32570.25
876.068	32384.25
876.31	32213.25
876.552	31948.25
876.794	31806.25
877.036	31344.25
877.278	31178.25
877.52	31104.25
877.762	31014.25
878.004	30871.25
878.246	30766.25
878.488	30802.25
878.73	30788.25
878.972	30792.25
879.213	30693.25
879.455	30615.25
879.697	30583.25
879.938	30495.25
880.18	30331.25
880.421	30412.25
880.663	30290.25
880.904	30666.25
881.145	30592.25
881.387	30715.25
881.628	30565.25
881.869	30279.25
882.11	30069.25
882.352	29920.25
882.593	29860.25
882.834	29602.25
883.075	29484.25
883.316	29579.25
883.557	29369.25
883.797	29264.25
884.038	29102.25
884.279	28633.25
884.52	28388.25
884.761	28063.25
885.001	27739.25
885.242	27494.25
885.482	27469.25
885.723	27291.25
885.963	27151.25
886.204	27021.25
886.444	26856.25
886.685	26973.25
886.925	26728.25
887.165	26512.25
887.405	26563.25
887.646	26306.25
887.886	26317.25
888.126	26219.25
888.366	26305.25
888.606	26176.25
888.846	26398.25
889.086	26482.25
889.326	26208.25
889.565	26229.25
889.805	26152.25
890.045	26122.25
890.285	26034.25
890.524	26096.25
890.764	25918.25
891.003	25772.25
891.243	25466.25
891.482	25263.25
891.722	24937.25
891.961	24907.25
892.201	24859.25
892.44	24587.25
892.679	24533.25
892.918	24439.25
893.158	24296.25
893.397	24462.25
893.636	24211.25
893.875	24117.25
894.114	23932.25
894.353	23802.25
894.592	23843.25
894.831	23632.25
895.069	23590.25
895.308	23351.25
895.547	23212.25
895.786	23163.25
896.024	23134.25
896.263	23036.25
896.501	23116.25
896.74	23017.25
896.978	23088.25
897.217	22743.25
897.455	22777.25
897.694	22741.25
897.932	22614.25
898.17	22566.25
898.408	22461.25
898.646	22495.25
898.885	22304.25
899.123	22163.25
899.361	21960.25
899.599	21872.25
899.837	21797.25
900.075	21584.25
900.312	21403.25
900.55	21275.25
900.788	21091.25
901.026	20860.25
901.263	20685.25
901.501	20435.25
901.739	20443.25
901.976	20212.25
902.214	20197.25
902.451	19993.25
902.689	20044.25
902.926	19857.25
903.163	20064.25
903.401	19988.25
903.638	19989.25
903.875	19963.25
904.112	19854.25
904.349	19888.25
904.586	19741.25
904.823	19730.25
905.06	19688.25
905.297	19459.25
905.534	19381.25
905.771	19090.25
906.008	19078.25
906.245	18930.25
906.481	18899.25
906.718	18709.25
906.955	18575.25
907.191	18545.25
907.428	18448.25
907.664	18388.25
907.901	18336.25
908.137	18146.25
908.374	18216.25
908.61	18070.25
908.846	17975.25
909.083	17874.25
909.319	17666.25
909.555	17700.25
909.791	17466.25
910.027	17468.25
910.263	17204.25
910.499	17112.25
910.735	17023.25
910.971	16735.25
911.207	16740.25
911.443	16589.25
911.678	16542.25
911.914	16526.25
912.15	16448.25
912.385	16441.25
912.621	16357.25
912.857	16444.25
913.092	16364.25
913.328	16362.25
913.563	16380.25
913.798	16339.25
914.034	16381.25
914.269	16264.25
914.504	16330.25
914.739	16152.25
914.975	15976.25
915.21	15931.25
915.445	15763.25
915.68	15724.25
915.915	15535.25
916.15	15362.25
916.384	15267.25
916.619	14995.25
916.854	14938.25
917.089	14913.25
917.324	14820.25
917.558	14627.25
917.793	14519.25
918.028	14510.25
918.262	14420.25
918.497	14439.25
918.731	14403.25
918.965	14403.25
919.2	14400.25
919.434	14324.25
919.668	14266.25
919.903	14264.25
920.137	14248.25
920.371	14062.25
920.605	14018.25
920.839	13914.25
921.073	13792.25
921.307	13716.25
921.541	13612.25
921.775	13555.25
922.009	13541.25
922.243	13432.25
922.476	13448.25
922.71	13495.25
922.944	13415.25
923.177	13346.25
923.411	13344.25
923.644	13315.25
923.878	13182.25
924.111	13243.25
924.345	13177.25
924.578	13126.25
924.811	13081.25
925.045	12981.25
925.278	12878.25
925.511	12783.25
925.744	12720.25
925.977	12619.25
926.21	12546.25
926.443	12487.25
926.676	12323.25
926.909	12275.25
927.142	12190.25
927.375	12031.25
927.608	11983.25
927.841	11971.25
928.073	11872.25
928.306	11800.25
928.539	11911.25
928.771	11836.25
929.004	11819.25
929.236	11816.25
929.469	11815.25
929.701	11858.25
929.933	11864.25
930.166	11819.25
930.398	11755.25
930.63	11732.25
930.862	11689.25
931.094	11625.25
931.327	11614.25
931.559	11476.25
931.791	11497.25
932.023	11332.25
932.255	11180.25
932.486	11117.25
932.718	11162.25
932.95	11002.25
933.182	11012.25
933.413	10971.25
933.645	10917.25
933.877	10904.25
934.108	10907.25
934.34	10762.25
934.571	10720.25
934.803	10642.25
935.034	10588.25
935.265	10637.25
935.497	10513.25
935.728	10573.25
935.959	10519.25
936.19	10440.25
936.422	10370.25
936.653	10345.25
936.884	10220.25
937.115	10203.25
937.346	10212.25
937.577	10009.25
937.807	9983.25
938.038	9995.25
938.269	9976.25
938.5	9909.25
938.73	9884.25
938.961	9829.25
939.192	9975.25
939.422	9917.25
939.653	9835.25
939.883	9872.25
940.114	9808.25
940.344	9746.25
940.574	9801.25
940.805	9747.25
941.035	9603.25
941.265	9570.25
941.495	9533.25
941.726	9451.25
941.956	9405.25
942.186	9316.25
942.416	9266.25
942.646	9129.25
942.876	9064.25
943.105	8980.25
943.335	8931.25
943.565	8913.25
943.795	8769.25
944.024	8717.25
944.254	8716.25
944.484	8617.25
944.713	8571.25
944.943	8631.25
945.172	8562.25
945.402	8594.25
945.631	8535.25
945.86	8499.25
946.09	8535.25
946.319	8504.25
946.548	8527.25
946.777	8463.25
947.006	8451.25
947.235	8416.25
947.465	8342.25
947.694	8286.25
947.922	8266.25
948.151	8172.25
948.38	8158.25
948.609	8044.25
948.838	8070.25
949.067	8056.25
949.295	7939.25
949.524	7862.25
949.752	7841.25
949.981	7805.25
950.21	7702.25
950.438	7727.25
950.666	7712.25
950.895	7538.25
951.123	7537.25
951.351	7523.25
951.58	7499.25
951.808	7462.25
952.036	7428.25
952.264	7360.25
952.492	7383.25
952.72	7299.25
952.948	7219.25
953.176	7212.25
953.404	7158.25
953.632	7143.25
953.86	7053.25
954.088	7018.25
954.315	6976.25
954.543	6903.25
954.771	6892.25
954.998	6881.25
955.226	6769.25
955.453	6827.25
955.681	6779.25
955.908	6735.25
956.135	6723.25
956.363	6657.25
956.59	6732.25
956.817	6800.25
957.045	6668.25
957.272	6644.25
957.499	6637.25
957.726	6601.25
957.953	6597.25
958.18	6556.25
958.407	6495.25
958.634	6454.25
958.861	6464.25
959.087	6407.25
959.314	6381.25
959.541	6318.25
959.767	6280.25
959.994	6244.25
960.221	6189.25
960.447	6079.25
960.674	6080.25
960.9	5989.25
961.127	5996.25
961.353	5962.25
961.579	5943.25
961.806	5903.25
962.032	5821.25
962.258	5796.25
962.484	5813.25
962.71	5794.25
962.936	5697.25
963.162	5693.25
963.388	5690.25
963.614	5727.25
963.84	5724.25
964.066	5682.25
964.292	5707.25
964.518	5644.25
964.743	5598.25
964.969	5616.25
965.195	5584.25
965.42	5501.25
965.646	5484.25
965.871	5501.25
966.097	5445.25
966.322	5467.25
966.547	5415.25
966.773	5364.25
966.998	5349.25
967.223	5314.25
967.448	5326.25
967.674	5277.25
967.899	5224.25
968.124	5208.25
968.349	5166.25
968.574	5118.25
968.799	5083.25
969.024	5091.25
969.248	5035.25
969.473	5037.25
969.698	5049.25
969.923	4963.25
970.147	4953.25
970.372	4924.25
970.596	4907.25
970.821	4874.25
971.046	4893.25
971.27	4846.25
971.494	4802.25
971.719	4712.25
971.943	4688.25
972.167	4685.25
972.392	4662.25
972.616	4621.25
972.84	4586.25
973.064	4520.25
973.288	4523.25
973.512	4517.25
973.736	4501.25
973.96	4496.25
974.184	4464.25
974.408	4488.25
974.631	4486.25
974.855	4401.25
975.079	4431.25
975.303	4366.25
975.526	4348.25
975.75	4356.25
975.973	4348.25
976.197	4304.25
976.42	4298.25
976.644	4277.25
976.867	4275.25
977.09	4206.25
977.313	4232.25
977.537	4136.25
977.76	4132.25
977.983	4115.25
978.206	4104.25
978.429	4009.25
978.652	4029.25
978.875	3989.25
979.098	3961.25
979.321	4016.25
979.544	3882.25
979.767	3880.25
979.989	3834.25
980.212	3835.25
980.435	3830.25
980.657	3773.25
980.88	3770.25
981.102	3746.25
981.325	3760.25
981.547	3727.25
981.77	3684.25
981.992	3736.25
982.214	3651.25
982.437	3662.25
982.659	3657.25
982.881	3596.25
983.103	3555.25
983.325	3586.25
983.547	3579.25
983.769	3550.25
983.991	3542.25
984.213	3497.25
984.435	3543.25
984.657	3504.25
984.879	3535.25
985.1	3448.25
985.322	3464.25
985.544	3447.25
985.765	3397.25
985.987	3361.25
986.208	3369.25
986.43	3388.25
986.651	3376.25
986.873	3292.25
987.094	3305.25
987.315	3277.25
987.536	3257.25
987.758	3225.25
987.979	3162.25
988.2	3204.25
988.421	3183.25
988.642	3169.25
988.863	3108.25
989.084	3076.25
989.305	3095.25
989.526	3076.25
989.747	3075.25
989.967	3048.25
990.188	3029.25
990.409	2986.25
990.629	2980.25
990.85	2954.25
991.071	2931.25
991.291	2949.25
991.512	2897.25
991.732	2871.25
991.952	2906.25
992.173	2894.25
992.393	2887.25
992.613	2838.25
992.834	2847.25
993.054	2839.25
993.274	2819.25
993.494	2822.25
993.714	2849.25
993.934	2824.25
994.154	2832.25
994.374	2800.25
994.594	2770.25
994.813	2762.25
995.033	2763.25
995.253	2756.25
995.473	2757.25
995.692	2690.25
995.912	2679.25
996.131	2645.25
996.351	2658.25
996.57	2591.25
996.79	2602.25
997.009	2607.25
997.228	2544.25
997.448	2534.25
997.667	2517.25
997.886	2460.25
998.105	2492.25
998.325	2423.25
998.544	2450.25
998.763	2452.25
998.982	2420.25
999.201	2381.25
999.419	2388.25
999.638	2389.25
999.857	2383.25
1000.076	2338.25
1000.295	2297.25
1000.513	2336.25
1000.732	2319.25
1000.95	2301.25
1001.169	2323.25
1001.388	2291.25
1001.606	2291.25
1001.824	2283.25
1002.043	2255.25
1002.261	2283.25
1002.479	2271.25
1002.698	2234.25
1002.916	2217.25
1003.134	2269.25
1003.352	2238.25
1003.57	2202.25
1003.788	2212.25
1004.006	2203.25
1004.224	2216.25
1004.442	2177.25
1004.66	2184.25
1004.878	2206.25
1005.095	2159.25
1005.313	2157.25
1005.531	2142.25
1005.748	2155.25
1005.966	2243.25
1006.184	2151.25
1006.401	2162.25
1006.618	2142.25
1006.836	2116.25
1007.053	2120.25
1007.271	2139.25
1007.488	2105.25
1007.705	2151.25
1007.922	2128.25
1008.139	2087.25
1008.357	2149.25
1008.574	2156.25
1008.791	2160.25
1009.008	2249.25
1009.225	2210.25
1009.441	2271.25
1009.658	2304.25
1009.875	2285.25
1010.092	2279.25
1010.309	2266.25
1010.525	2261.25
1010.742	2245.25
1010.958	2183.25
1011.175	2206.25
1011.391	2156.25
1011.608	2179.25
1011.824	2120.25
1012.041	2090.25
1012.257	2078.25
1012.473	2092.25
1012.689	2038.25
1012.906	2007.25
1013.122	2046.25
1013.338	2066.25
1013.554	2055.25
1013.77	2083.25
1013.986	2053.25
1014.202	2118.25
1014.418	2141.25
1014.634	2193.25
1014.849	2279.25
1015.065	2299.25
1015.281	2302.25
1015.496	2279.25
1015.712	2252.25
1015.928	2197.25
1016.143	2153.25
1016.359	2135.25
1016.574	2078.25
1016.79	2005.25
1017.005	1955.25
1017.22	1903.25
1017.435	1854.25
1017.651	1828.25
1017.866	1799.25
1018.081	1744.25
1018.296	1694.25
1018.511	1691.25
1018.726	1712.25
1018.941	1679.25
1019.156	1636.25
1019.371	1630.25
1019.586	1661.25
1019.801	1651.25
1020.015	1612.25
1020.23	1634.25
1020.445	1617.25
1020.659	1570.25
1020.874	1565.25
1021.088	1553.25
1021.303	1504.25
1021.517	1476.25
1021.732	1455.25
1021.946	1416.25
1022.16	1449.25
1022.375	1377.25
1022.589	1372.25
1022.803	1322.25
1023.017	1324.25
1023.231	1272.25
1023.445	1297.25
1023.659	1221.25
1023.873	1227.25
1024.087	1150.25
1024.301	1158.25
1024.515	1141.25
1024.729	1131.25
1024.942	1102.25
1025.156	1120.25
1025.37	1071.25
1025.583	1062.25
1025.797	1034.25
1026.01	1015.25
1026.224	979.25
1026.437	951.25
1026.651	958.25
1026.864	905.25
1027.077	918.25
1027.291	894.25
1027.504	843.25
1027.717	819.25
1027.93	810.25
1028.143	783.25
1028.356	752.25
1028.569	723.25
1028.782	676.25
1028.995	-0.75
1029.208	-1.75
1029.421	1.25
1029.634	-1.75
