Data from QEP037381__524__16-08-16-575.txt Node

Date: Mon Mar 14 16:08:16 EDT 2022
User: dcclab
Spectrometer: QEP03738
Trigger mode: 4
Integration Time (sec): 2.500000E0
Scans to average: 1
Electric dark correction enabled: true
Nonlinearity correction enabled: false
Boxcar width: 0
XAxis mode: Wavelengths
Number of Pixels in Spectrum: 1044
>>>>>Begin Spectral Data<<<<<
783.959	15.88
784.218	-1.12
784.476	-4.12
784.734	-5.12
784.992	244.88
785.251	224.88
785.509	221.88
785.767	223.88
786.025	212.88
786.283	202.88
786.541	213.88
786.798	208.88
787.056	203.88
787.314	184.88
787.572	197.88
787.83	189.88
788.087	204.88
788.345	181.88
788.602	184.88
788.86	188.88
789.117	195.88
789.375	176.88
789.632	177.88
789.89	178.88
790.147	196.88
790.404	191.88
790.661	186.88
790.919	218.88
791.176	200.88
791.433	201.88
791.69	199.88
791.947	211.88
792.204	186.88
792.461	205.88
792.718	209.88
792.974	212.88
793.231	217.88
793.488	235.88
793.745	232.88
794.001	237.88
794.258	252.88
794.514	244.88
794.771	265.88
795.027	256.88
795.284	293.88
795.54	296.88
795.797	310.88
796.053	329.88
796.309	350.88
796.565	368.88
796.822	415.88
797.078	461.88
797.334	530.88
797.59	621.88
797.846	766.88
798.102	988.88
798.358	1299.88
798.614	1809.88
798.869	2650.88
799.125	3899.88
799.381	5604.88
799.637	7918.88
799.892	10764.88
800.148	13880.88
800.403	16793.88
800.659	19425.88
800.914	21361.88
801.17	22836.88
801.425	23667.88
801.68	24459.88
801.936	25037.88
802.191	25656.88
802.446	26039.88
802.701	26614.88
802.957	27206.88
803.212	27694.88
803.467	28482.88
803.722	28934.88
803.977	29536.88
804.232	30130.88
804.486	30572.88
804.741	31291.88
804.996	31895.88
805.251	32458.88
805.505	32963.88
805.76	33572.88
806.015	34244.88
806.269	34459.88
806.524	35106.88
806.778	35486.88
807.033	35757.88
807.287	36239.88
807.541	36506.88
807.796	37175.88
808.05	37736.88
808.304	37985.88
808.558	38135.88
808.812	38331.88
809.066	38809.88
809.32	38980.88
809.574	39414.88
809.828	39498.88
810.082	39956.88
810.336	40393.88
810.59	40513.88
810.844	41326.88
811.097	41695.88
811.351	42269.88
811.605	42902.88
811.858	43724.88
812.112	44420.88
812.365	45124.88
812.619	45828.88
812.872	46478.88
813.126	47177.88
813.379	47963.88
813.632	48459.88
813.885	48973.88
814.139	49801.88
814.392	50658.88
814.645	51354.88
814.898	52427.88
815.151	53345.88
815.404	54420.88
815.657	55136.88
815.91	56208.88
816.163	56881.88
816.416	57338.88
816.668	57853.88
816.921	58130.88
817.174	58575.88
817.426	58576.88
817.679	58564.88
817.931	58601.88
818.184	58560.88
818.436	58643.88
818.689	58580.88
818.941	58689.88
819.194	58865.88
819.446	59208.88
819.698	59491.88
819.95	59933.88
820.202	59912.88
820.455	60311.88
820.707	60478.88
820.959	60492.88
821.211	60571.88
821.462	60395.88
821.714	60267.88
821.966	59929.88
822.218	59633.88
822.47	59604.88
822.722	59446.88
822.973	59185.88
823.225	58992.88
823.476	58798.88
823.728	58926.88
823.979	59092.88
824.231	59014.88
824.482	59210.88
824.734	59003.88
824.985	59182.88
825.236	59337.88
825.487	58869.88
825.739	58881.88
825.99	58653.88
826.241	58478.88
826.492	58198.88
826.743	58053.88
826.994	57763.88
827.245	57523.88
827.496	57399.88
827.747	57332.88
827.997	57348.88
828.248	57460.88
828.499	57582.88
828.75	57529.88
829	57424.88
829.251	57522.88
829.501	57231.88
829.752	57069.88
830.002	56808.88
830.253	56660.88
830.503	56175.88
830.753	56017.88
831.004	55624.88
831.254	55225.88
831.504	55355.88
831.754	55240.88
832.004	55159.88
832.254	55297.88
832.504	55257.88
832.754	55225.88
833.004	55245.88
833.254	55225.88
833.504	55270.88
833.754	54919.88
834.003	54757.88
834.253	54542.88
834.503	54224.88
834.752	54141.88
835.002	53774.88
835.252	53644.88
835.501	53344.88
835.75	53266.88
836	52963.88
836.249	53166.88
836.499	53124.88
836.748	52923.88
836.997	52961.88
837.246	53215.88
837.495	53522.88
837.744	54151.88
837.993	54852.88
838.242	55376.88
838.491	55072.88
838.74	54259.88
838.989	53158.88
839.238	52711.88
839.487	51873.88
839.736	51717.88
839.984	51355.88
840.233	51134.88
840.482	50774.88
840.73	50554.88
840.979	50457.88
841.227	50365.88
841.476	50108.88
841.724	49970.88
841.972	49881.88
842.221	49755.88
842.469	49531.88
842.717	49284.88
842.965	49181.88
843.213	49185.88
843.461	48999.88
843.71	48554.88
843.958	48509.88
844.205	48335.88
844.453	48411.88
844.701	48316.88
844.949	48278.88
845.197	48152.88
845.445	48202.88
845.692	48179.88
845.94	48333.88
846.188	48291.88
846.435	48338.88
846.683	48180.88
846.93	48005.88
847.178	47743.88
847.425	47478.88
847.672	47053.88
847.92	46624.88
848.167	46229.88
848.414	45779.88
848.661	45612.88
848.908	45425.88
849.155	45433.88
849.402	45146.88
849.649	45408.88
849.896	45649.88
850.143	45853.88
850.39	46248.88
850.637	46119.88
850.884	46138.88
851.131	45883.88
851.377	45853.88
851.624	45534.88
851.87	45351.88
852.117	45134.88
852.364	44868.88
852.61	44976.88
852.856	44642.88
853.103	44672.88
853.349	44538.88
853.595	44327.88
853.842	43955.88
854.088	43691.88
854.334	43788.88
854.58	43722.88
854.826	43370.88
855.072	43138.88
855.318	42745.88
855.564	42432.88
855.81	42108.88
856.056	41809.88
856.302	41263.88
856.548	41107.88
856.793	40853.88
857.039	40650.88
857.285	40617.88
857.53	40520.88
857.776	40570.88
858.021	40592.88
858.267	40820.88
858.512	40855.88
858.758	40992.88
859.003	40935.88
859.248	40952.88
859.493	40886.88
859.739	40888.88
859.984	40600.88
860.229	40375.88
860.474	40005.88
860.719	39854.88
860.964	39566.88
861.209	39428.88
861.454	39138.88
861.699	38826.88
861.943	38608.88
862.188	38594.88
862.433	38468.88
862.678	38291.88
862.922	38287.88
863.167	38161.88
863.411	38059.88
863.656	38006.88
863.9	37884.88
864.145	37713.88
864.389	37558.88
864.634	37373.88
864.878	37302.88
865.122	37248.88
865.366	36961.88
865.61	37029.88
865.855	36917.88
866.099	36782.88
866.343	36669.88
866.587	36577.88
866.831	36812.88
867.074	36682.88
867.318	36545.88
867.562	36667.88
867.806	36653.88
868.05	36711.88
868.293	36540.88
868.537	36336.88
868.78	36259.88
869.024	35905.88
869.267	35806.88
869.511	35351.88
869.754	35240.88
869.998	34676.88
870.241	34444.88
870.484	34302.88
870.728	34132.88
870.971	33785.88
871.214	33715.88
871.457	33673.88
871.7	33556.88
871.943	33581.88
872.186	33671.88
872.429	33754.88
872.672	33575.88
872.915	33663.88
873.158	33583.88
873.4	33455.88
873.643	33392.88
873.886	33160.88
874.128	33140.88
874.371	33038.88
874.613	32919.88
874.856	33002.88
875.098	32747.88
875.341	32754.88
875.583	32726.88
875.825	32542.88
876.068	32388.88
876.31	32145.88
876.552	31853.88
876.794	31455.88
877.036	31299.88
877.278	31096.88
877.52	30902.88
877.762	30867.88
878.004	30828.88
878.246	30631.88
878.488	30625.88
878.73	30672.88
878.972	30545.88
879.213	30658.88
879.455	30489.88
879.697	30366.88
879.938	30370.88
880.18	30415.88
880.421	30176.88
880.663	30264.88
880.904	30327.88
881.145	30469.88
881.387	30426.88
881.628	30553.88
881.869	30152.88
882.11	29908.88
882.352	29787.88
882.593	29592.88
882.834	29563.88
883.075	29376.88
883.316	29450.88
883.557	29268.88
883.797	29128.88
884.038	28882.88
884.279	28543.88
884.52	28239.88
884.761	28027.88
885.001	27584.88
885.242	27408.88
885.482	27302.88
885.723	27145.88
885.963	27051.88
886.204	26843.88
886.444	26681.88
886.685	26729.88
886.925	26581.88
887.165	26333.88
887.405	26386.88
887.646	26294.88
887.886	26071.88
888.126	26212.88
888.366	26195.88
888.606	26104.88
888.846	26093.88
889.086	26232.88
889.326	26219.88
889.565	26108.88
889.805	26093.88
890.045	25988.88
890.285	25891.88
890.524	25880.88
890.764	25874.88
891.003	25614.88
891.243	25287.88
891.482	25155.88
891.722	24890.88
891.961	24787.88
892.201	24650.88
892.44	24526.88
892.679	24400.88
892.918	24310.88
893.158	24250.88
893.397	24227.88
893.636	24130.88
893.875	24030.88
894.114	23816.88
894.353	23763.88
894.592	23712.88
894.831	23549.88
895.069	23319.88
895.308	23287.88
895.547	23186.88
895.786	23046.88
896.024	23071.88
896.263	22972.88
896.501	22856.88
896.74	22910.88
896.978	22862.88
897.217	22782.88
897.455	22686.88
897.694	22612.88
897.932	22551.88
898.17	22574.88
898.408	22452.88
898.646	22281.88
898.885	22183.88
899.123	22013.88
899.361	21937.88
899.599	21899.88
899.837	21691.88
900.075	21459.88
900.312	21372.88
900.55	21153.88
900.788	21021.88
901.026	20710.88
901.263	20580.88
901.501	20461.88
901.739	20279.88
901.976	20171.88
902.214	20014.88
902.451	20061.88
902.689	19858.88
902.926	19918.88
903.163	19794.88
903.401	19936.88
903.638	19967.88
903.875	19828.88
904.112	19835.88
904.349	19867.88
904.586	19682.88
904.823	19649.88
905.06	19517.88
905.297	19435.88
905.534	19196.88
905.771	18996.88
906.008	19000.88
906.245	18831.88
906.481	18715.88
906.718	18689.88
906.955	18531.88
907.191	18460.88
907.428	18349.88
907.664	18320.88
907.901	18227.88
908.137	18175.88
908.374	18069.88
908.61	18087.88
908.846	17896.88
909.083	17794.88
909.319	17645.88
909.555	17550.88
909.791	17433.88
910.027	17256.88
910.263	17150.88
910.499	17111.88
910.735	16912.88
910.971	16841.88
911.207	16679.88
911.443	16571.88
911.678	16504.88
911.914	16452.88
912.15	16490.88
912.385	16385.88
912.621	16247.88
912.857	16384.88
913.092	16297.88
913.328	16278.88
913.563	16258.88
913.798	16249.88
914.034	16269.88
914.269	16212.88
914.504	16099.88
914.739	15999.88
914.975	15900.88
915.21	15822.88
915.445	15681.88
915.68	15586.88
915.915	15467.88
916.15	15324.88
916.384	15062.88
916.619	14943.88
916.854	14855.88
917.089	14757.88
917.324	14639.88
917.558	14575.88
917.793	14476.88
918.028	14448.88
918.262	14389.88
918.497	14392.88
918.731	14323.88
918.965	14301.88
919.2	14313.88
919.434	14299.88
919.668	14179.88
919.903	14162.88
920.137	14156.88
920.371	14084.88
920.605	14028.88
920.839	13807.88
921.073	13799.88
921.307	13631.88
921.541	13583.88
921.775	13496.88
922.009	13478.88
922.243	13376.88
922.476	13474.88
922.71	13431.88
922.944	13332.88
923.177	13317.88
923.411	13282.88
923.644	13271.88
923.878	13181.88
924.111	13100.88
924.345	13107.88
924.578	13036.88
924.811	12960.88
925.045	12911.88
925.278	12830.88
925.511	12740.88
925.744	12627.88
925.977	12580.88
926.21	12501.88
926.443	12289.88
926.676	12291.88
926.909	12182.88
927.142	12105.88
927.375	11956.88
927.608	11933.88
927.841	11918.88
928.073	11893.88
928.306	11776.88
928.539	11722.88
928.771	11749.88
929.004	11709.88
929.236	11723.88
929.469	11792.88
929.701	11703.88
929.933	11734.88
930.166	11628.88
930.398	11753.88
930.63	11752.88
930.862	11665.88
931.094	11517.88
931.327	11511.88
931.559	11356.88
931.791	11378.88
932.023	11253.88
932.255	11384.88
932.486	11126.88
932.718	11112.88
932.95	10995.88
933.182	10940.88
933.413	11016.88
933.645	10856.88
933.877	10782.88
934.108	10821.88
934.34	10684.88
934.571	10662.88
934.803	10576.88
935.034	10525.88
935.265	10507.88
935.497	10580.88
935.728	10492.88
935.959	10476.88
936.19	10422.88
936.422	10311.88
936.653	10307.88
936.884	10209.88
937.115	10178.88
937.346	10078.88
937.577	10081.88
937.807	9968.88
938.038	9884.88
938.269	9919.88
938.5	9897.88
938.73	9924.88
938.961	9832.88
939.192	9850.88
939.422	9863.88
939.653	9841.88
939.883	9830.88
940.114	9763.88
940.344	9736.88
940.574	9731.88
940.805	9732.88
941.035	9650.88
941.265	9622.88
941.495	9468.88
941.726	9447.88
941.956	9449.88
942.186	9215.88
942.416	9241.88
942.646	9125.88
942.876	9028.88
943.105	9004.88
943.335	8954.88
943.565	8881.88
943.795	8792.88
944.024	8699.88
944.254	8650.88
944.484	8693.88
944.713	8600.88
944.943	8574.88
945.172	8581.88
945.402	8518.88
945.631	8474.88
945.86	8518.88
946.09	8478.88
946.319	8499.88
946.548	8456.88
946.777	8419.88
947.006	8409.88
947.235	8362.88
947.465	8287.88
947.694	8278.88
947.922	8252.88
948.151	8145.88
948.38	8105.88
948.609	8056.88
948.838	7978.88
949.067	7947.88
949.295	7839.88
949.524	7856.88
949.752	7797.88
949.981	7709.88
950.21	7699.88
950.438	7643.88
950.666	7618.88
950.895	7557.88
951.123	7556.88
951.351	7461.88
951.58	7447.88
951.808	7437.88
952.036	7413.88
952.264	7365.88
952.492	7366.88
952.72	7350.88
952.948	7284.88
953.176	7240.88
953.404	7165.88
953.632	7061.88
953.86	7077.88
954.088	6990.88
954.315	6900.88
954.543	6908.88
954.771	6888.88
954.998	6752.88
955.226	6812.88
955.453	6773.88
955.681	6757.88
955.908	6742.88
956.135	6656.88
956.363	6724.88
956.59	6684.88
956.817	6694.88
957.045	6681.88
957.272	6616.88
957.499	6603.88
957.726	6608.88
957.953	6563.88
958.18	6503.88
958.407	6493.88
958.634	6452.88
958.861	6421.88
959.087	6330.88
959.314	6359.88
959.541	6194.88
959.767	6234.88
959.994	6199.88
960.221	6165.88
960.447	6143.88
960.674	6060.88
960.9	5938.88
961.127	5973.88
961.353	5923.88
961.579	5817.88
961.806	5880.88
962.032	5834.88
962.258	5820.88
962.484	5790.88
962.71	5725.88
962.936	5761.88
963.162	5740.88
963.388	5725.88
963.614	5697.88
963.84	5629.88
964.066	5663.88
964.292	5669.88
964.518	5571.88
964.743	5584.88
964.969	5580.88
965.195	5577.88
965.42	5430.88
965.646	5472.88
965.871	5441.88
966.097	5440.88
966.322	5421.88
966.547	5399.88
966.773	5378.88
966.998	5321.88
967.223	5314.88
967.448	5229.88
967.674	5201.88
967.899	5226.88
968.124	5196.88
968.349	5143.88
968.574	5160.88
968.799	5064.88
969.024	5076.88
969.248	5033.88
969.473	4993.88
969.698	4980.88
969.923	4965.88
970.147	4903.88
970.372	4879.88
970.596	4827.88
970.821	4871.88
971.046	4843.88
971.27	4825.88
971.494	4766.88
971.719	4704.88
971.943	4679.88
972.167	4674.88
972.392	4603.88
972.616	4623.88
972.84	4612.88
973.064	4520.88
973.288	4557.88
973.512	4510.88
973.736	4470.88
973.96	4491.88
974.184	4468.88
974.408	4463.88
974.631	4458.88
974.855	4417.88
975.079	4381.88
975.303	4364.88
975.526	4333.88
975.75	4342.88
975.973	4294.88
976.197	4324.88
976.42	4270.88
976.644	4241.88
976.867	4211.88
977.09	4194.88
977.313	4186.88
977.537	4146.88
977.76	4061.88
977.983	4086.88
978.206	4063.88
978.429	4044.88
978.652	4020.88
978.875	3971.88
979.098	3949.88
979.321	3885.88
979.544	3876.88
979.767	3887.88
979.989	3807.88
980.212	3803.88
980.435	3800.88
980.657	3714.88
980.88	3794.88
981.102	3743.88
981.325	3740.88
981.547	3705.88
981.77	3713.88
981.992	3678.88
982.214	3640.88
982.437	3633.88
982.659	3609.88
982.881	3627.88
983.103	3627.88
983.325	3567.88
983.547	3560.88
983.769	3544.88
983.991	3511.88
984.213	3527.88
984.435	3515.88
984.657	3497.88
984.879	3441.88
985.1	3438.88
985.322	3432.88
985.544	3386.88
985.765	3389.88
985.987	3363.88
986.208	3371.88
986.43	3379.88
986.651	3305.88
986.873	3339.88
987.094	3321.88
987.315	3300.88
987.536	3298.88
987.758	3214.88
987.979	3198.88
988.2	3207.88
988.421	3211.88
988.642	3182.88
988.863	3089.88
989.084	3100.88
989.305	3101.88
989.526	3043.88
989.747	3076.88
989.967	3059.88
990.188	3023.88
990.409	2978.88
990.629	2943.88
990.85	2936.88
991.071	2935.88
991.291	2921.88
991.512	2899.88
991.732	2873.88
991.952	2922.88
992.173	2870.88
992.393	2875.88
992.613	2864.88
992.834	2902.88
993.054	2830.88
993.274	2830.88
993.494	2817.88
993.714	2800.88
993.934	2792.88
994.154	2818.88
994.374	2801.88
994.594	2752.88
994.813	2730.88
995.033	2761.88
995.253	2752.88
995.473	2719.88
995.692	2671.88
995.912	2671.88
996.131	2682.88
996.351	2655.88
996.57	2617.88
996.79	2585.88
997.009	2602.88
997.228	2570.88
997.448	2551.88
997.667	2487.88
997.886	2463.88
998.105	2468.88
998.325	2438.88
998.544	2417.88
998.763	2419.88
998.982	2426.88
999.201	2382.88
999.419	2383.88
999.638	2338.88
999.857	2370.88
1000.076	2364.88
1000.295	2271.88
1000.513	2333.88
1000.732	2317.88
1000.95	2291.88
1001.169	2310.88
1001.388	2305.88
1001.606	2266.88
1001.824	2288.88
1002.043	2239.88
1002.261	2247.88
1002.479	2266.88
1002.698	2200.88
1002.916	2189.88
1003.134	2234.88
1003.352	2187.88
1003.57	2208.88
1003.788	2228.88
1004.006	2165.88
1004.224	2198.88
1004.442	2153.88
1004.66	2191.88
1004.878	2190.88
1005.095	2215.88
1005.313	2149.88
1005.531	2158.88
1005.748	2152.88
1005.966	2232.88
1006.184	2119.88
1006.401	2129.88
1006.618	2109.88
1006.836	2140.88
1007.053	2124.88
1007.271	2158.88
1007.488	2123.88
1007.705	2124.88
1007.922	2121.88
1008.139	2119.88
1008.357	2141.88
1008.574	2142.88
1008.791	2163.88
1009.008	2251.88
1009.225	2222.88
1009.441	2253.88
1009.658	2313.88
1009.875	2306.88
1010.092	2316.88
1010.309	2284.88
1010.525	2242.88
1010.742	2192.88
1010.958	2185.88
1011.175	2195.88
1011.391	2150.88
1011.608	2173.88
1011.824	2142.88
1012.041	2090.88
1012.257	2089.88
1012.473	2047.88
1012.689	2061.88
1012.906	2082.88
1013.122	2029.88
1013.338	2017.88
1013.554	2063.88
1013.77	2046.88
1013.986	2055.88
1014.202	2129.88
1014.418	2150.88
1014.634	2227.88
1014.849	2284.88
1015.065	2325.88
1015.281	2308.88
1015.496	2314.88
1015.712	2256.88
1015.928	2228.88
1016.143	2177.88
1016.359	2107.88
1016.574	2041.88
1016.79	2009.88
1017.005	1970.88
1017.22	1893.88
1017.435	1870.88
1017.651	1844.88
1017.866	1778.88
1018.081	1727.88
1018.296	1700.88
1018.511	1679.88
1018.726	1690.88
1018.941	1689.88
1019.156	1677.88
1019.371	1644.88
1019.586	1678.88
1019.801	1645.88
1020.015	1620.88
1020.23	1659.88
1020.445	1601.88
1020.659	1560.88
1020.874	1582.88
1021.088	1518.88
1021.303	1501.88
1021.517	1455.88
1021.732	1444.88
1021.946	1405.88
1022.16	1427.88
1022.375	1368.88
1022.589	1360.88
1022.803	1327.88
1023.017	1306.88
1023.231	1270.88
1023.445	1273.88
1023.659	1223.88
1023.873	1203.88
1024.087	1172.88
1024.301	1161.88
1024.515	1134.88
1024.729	1137.88
1024.942	1086.88
1025.156	1101.88
1025.37	1068.88
1025.583	1045.88
1025.797	1025.88
1026.01	1016.88
1026.224	998.88
1026.437	970.88
1026.651	924.88
1026.864	907.88
1027.077	909.88
1027.291	882.88
1027.504	859.88
1027.717	842.88
1027.93	811.88
1028.143	782.88
1028.356	755.88
1028.569	723.88
1028.782	669.88
1028.995	-2.12
1029.208	-2.12
1029.421	-1.12
1029.634	-0.12
