Data from QEP037381__523__16-08-14-083.txt Node

Date: Mon Mar 14 16:08:14 EDT 2022
User: dcclab
Spectrometer: QEP03738
Trigger mode: 4
Integration Time (sec): 2.500000E0
Scans to average: 1
Electric dark correction enabled: true
Nonlinearity correction enabled: false
Boxcar width: 0
XAxis mode: Wavelengths
Number of Pixels in Spectrum: 1044
>>>>>Begin Spectral Data<<<<<
783.959	10.38
784.218	1.38
784.476	-4.62
784.734	-2.62
784.992	243.38
785.251	237.38
785.509	218.38
785.767	223.38
786.025	213.38
786.283	220.38
786.541	212.38
786.798	214.38
787.056	200.38
787.314	199.38
787.572	200.38
787.83	190.38
788.087	202.38
788.345	195.38
788.602	183.38
788.86	188.38
789.117	200.38
789.375	184.38
789.632	179.38
789.89	189.38
790.147	192.38
790.404	198.38
790.661	197.38
790.919	206.38
791.176	194.38
791.433	198.38
791.69	205.38
791.947	211.38
792.204	193.38
792.461	210.38
792.718	219.38
792.974	217.38
793.231	214.38
793.488	239.38
793.745	224.38
794.001	238.38
794.258	258.38
794.514	248.38
794.771	264.38
795.027	262.38
795.284	270.38
795.54	297.38
795.797	297.38
796.053	339.38
796.309	366.38
796.565	385.38
796.822	419.38
797.078	454.38
797.334	536.38
797.59	613.38
797.846	763.38
798.102	979.38
798.358	1282.38
798.614	1825.38
798.869	2643.38
799.125	3906.38
799.381	5686.38
799.637	7921.38
799.892	10717.38
800.148	13904.38
800.403	16894.38
800.659	19409.38
800.914	21373.38
801.17	22869.38
801.425	23717.38
801.68	24505.38
801.936	25126.38
802.191	25656.38
802.446	26147.38
802.701	26771.38
802.957	27386.38
803.212	27876.38
803.467	28496.38
803.722	29025.38
803.977	29505.38
804.232	30151.38
804.486	30797.38
804.741	31370.38
804.996	32004.38
805.251	32772.38
805.505	33158.38
805.76	33776.38
806.015	34288.38
806.269	34648.38
806.524	35189.38
806.778	35525.38
807.033	35798.38
807.287	36216.38
807.541	36714.38
807.796	37237.38
808.05	37677.38
808.304	38057.38
808.558	38370.38
808.812	38545.38
809.066	38934.38
809.32	39200.38
809.574	39524.38
809.828	39787.38
810.082	40010.38
810.336	40482.38
810.59	40747.38
810.844	41209.38
811.097	41749.38
811.351	42284.38
811.605	43093.38
811.858	43613.38
812.112	44466.38
812.365	45337.38
812.619	45919.38
812.872	46693.38
813.126	47374.38
813.379	47756.38
813.632	48688.38
813.885	49157.38
814.139	49906.38
814.392	50700.38
814.645	51556.38
814.898	52535.38
815.151	53645.38
815.404	54498.38
815.657	55337.38
815.91	56063.38
816.163	57117.38
816.416	57571.38
816.668	57991.38
816.921	58501.38
817.174	58653.38
817.426	58657.38
817.679	58577.38
817.931	58720.38
818.184	58769.38
818.436	58596.38
818.689	58698.38
818.941	58875.38
819.194	59193.38
819.446	59147.38
819.698	59592.38
819.95	60037.38
820.202	60262.38
820.455	60178.38
820.707	60674.38
820.959	60753.38
821.211	60493.38
821.462	60521.38
821.714	60427.38
821.966	60272.38
822.218	60034.38
822.47	59701.38
822.722	59408.38
822.973	59379.38
823.225	59007.38
823.476	59127.38
823.728	59126.38
823.979	59270.38
824.231	59188.38
824.482	59203.38
824.734	59426.38
824.985	59505.38
825.236	59341.38
825.487	59079.38
825.739	58834.38
825.99	58868.38
826.241	58746.38
826.492	58346.38
826.743	58143.38
826.994	57927.38
827.245	57741.38
827.496	57542.38
827.747	57546.38
827.997	57591.38
828.248	57771.38
828.499	57703.38
828.75	57571.38
829	57700.38
829.251	57642.38
829.501	57536.38
829.752	57270.38
830.002	57042.38
830.253	56735.38
830.503	56478.38
830.753	56106.38
831.004	55738.38
831.254	55446.38
831.504	55533.38
831.754	55306.38
832.004	55159.38
832.254	55375.38
832.504	55399.38
832.754	55566.38
833.004	55456.38
833.254	55258.38
833.504	55172.38
833.754	55272.38
834.003	55096.38
834.253	54644.38
834.503	54436.38
834.752	54100.38
835.002	53850.38
835.252	53565.38
835.501	53626.38
835.75	53314.38
836	53195.38
836.249	53242.38
836.499	53125.38
836.748	53192.38
836.997	53152.38
837.246	53360.38
837.495	53638.38
837.744	54391.38
837.993	54764.38
838.242	55312.38
838.491	55324.38
838.74	54402.38
838.989	53428.38
839.238	52671.38
839.487	52109.38
839.736	51765.38
839.984	51441.38
840.233	51267.38
840.482	51050.38
840.73	50714.38
840.979	50598.38
841.227	50537.38
841.476	50235.38
841.724	50091.38
841.972	49957.38
842.221	49895.38
842.469	49484.38
842.717	49460.38
842.965	49542.38
843.213	49182.38
843.461	48986.38
843.71	48883.38
843.958	48571.38
844.205	48537.38
844.453	48579.38
844.701	48433.38
844.949	48341.38
845.197	48445.38
845.445	48268.38
845.692	48706.38
845.94	48356.38
846.188	48391.38
846.435	48456.38
846.683	48167.38
846.93	47967.38
847.178	47888.38
847.425	47529.38
847.672	46931.38
847.92	46783.38
848.167	46266.38
848.414	45912.38
848.661	45707.38
848.908	45385.38
849.155	45446.38
849.402	45492.38
849.649	45646.38
849.896	45640.38
850.143	46020.38
850.39	46315.38
850.637	46191.38
850.884	46167.38
851.131	46000.38
851.377	45883.38
851.624	45872.38
851.87	45490.38
852.117	45369.38
852.364	45023.38
852.61	44906.38
852.856	44947.38
853.103	44606.38
853.349	44606.38
853.595	44387.38
853.842	44096.38
854.088	43951.38
854.334	43955.38
854.58	43859.38
854.826	43437.38
855.072	43149.38
855.318	42869.38
855.564	42542.38
855.81	42223.38
856.056	41857.38
856.302	41396.38
856.548	41168.38
856.793	40898.38
857.039	40759.38
857.285	40521.38
857.53	40527.38
857.776	40494.38
858.021	40715.38
858.267	40940.38
858.512	40890.38
858.758	41032.38
859.003	41024.38
859.248	41053.38
859.493	40882.38
859.739	40775.38
859.984	40688.38
860.229	40453.38
860.474	40200.38
860.719	40005.38
860.964	39789.38
861.209	39496.38
861.454	39208.38
861.699	38960.38
861.943	38683.38
862.188	38557.38
862.433	38546.38
862.678	38391.38
862.922	38315.38
863.167	38290.38
863.411	38022.38
863.656	38086.38
863.9	37775.38
864.145	37785.38
864.389	37676.38
864.634	37417.38
864.878	37347.38
865.122	37088.38
865.366	37085.38
865.61	37059.38
865.855	36995.38
866.099	36873.38
866.343	36774.38
866.587	36770.38
866.831	36737.38
867.074	36665.38
867.318	36782.38
867.562	36834.38
867.806	36776.38
868.05	36704.38
868.293	36574.38
868.537	36452.38
868.78	36453.38
869.024	36104.38
869.267	35714.38
869.511	35481.38
869.754	35281.38
869.998	34675.38
870.241	34448.38
870.484	34375.38
870.728	33956.38
870.971	34016.38
871.214	33941.38
871.457	33697.38
871.7	33760.38
871.943	33663.38
872.186	33687.38
872.429	33660.38
872.672	33808.38
872.915	33847.38
873.158	33591.38
873.4	33639.38
873.643	33478.38
873.886	33478.38
874.128	33222.38
874.371	33117.38
874.613	33003.38
874.856	32935.38
875.098	32864.38
875.341	32939.38
875.583	32670.38
875.825	32572.38
876.068	32399.38
876.31	32091.38
876.552	31859.38
876.794	31672.38
877.036	31386.38
877.278	31089.38
877.52	31011.38
877.762	30993.38
878.004	30786.38
878.246	30725.38
878.488	30722.38
878.73	30753.38
878.972	30474.38
879.213	30687.38
879.455	30636.38
879.697	30465.38
879.938	30417.38
880.18	30344.38
880.421	30329.38
880.663	30313.38
880.904	30414.38
881.145	30564.38
881.387	30604.38
881.628	30531.38
881.869	30223.38
882.11	29982.38
882.352	29803.38
882.593	29758.38
882.834	29625.38
883.075	29579.38
883.316	29420.38
883.557	29324.38
883.797	29146.38
884.038	28882.38
884.279	28560.38
884.52	28209.38
884.761	28055.38
885.001	27780.38
885.242	27573.38
885.482	27330.38
885.723	27184.38
885.963	27082.38
886.204	26918.38
886.444	26787.38
886.685	26674.38
886.925	26590.38
887.165	26487.38
887.405	26354.38
887.646	26213.38
887.886	26319.38
888.126	26139.38
888.366	26106.38
888.606	26216.38
888.846	26158.38
889.086	26238.38
889.326	26225.38
889.565	26064.38
889.805	26128.38
890.045	26129.38
890.285	26052.38
890.524	25897.38
890.764	25856.38
891.003	25662.38
891.243	25343.38
891.482	25215.38
891.722	24999.38
891.961	24937.38
892.201	24696.38
892.44	24594.38
892.679	24465.38
892.918	24431.38
893.158	24328.38
893.397	24246.38
893.636	24116.38
893.875	24173.38
894.114	23955.38
894.353	23738.38
894.592	23785.38
894.831	23648.38
895.069	23457.38
895.308	23392.38
895.547	23169.38
895.786	23111.38
896.024	22995.38
896.263	23126.38
896.501	22969.38
896.74	22890.38
896.978	22867.38
897.217	22837.38
897.455	22776.38
897.694	22677.38
897.932	22572.38
898.17	22557.38
898.408	22486.38
898.646	22339.38
898.885	22311.38
899.123	22071.38
899.361	22025.38
899.599	21864.38
899.837	21722.38
900.075	21605.38
900.312	21399.38
900.55	21225.38
900.788	21065.38
901.026	20659.38
901.263	20556.38
901.501	20519.38
901.739	20324.38
901.976	20211.38
902.214	20105.38
902.451	20083.38
902.689	20089.38
902.926	19962.38
903.163	19919.38
903.401	19936.38
903.638	19992.38
903.875	19854.38
904.112	19867.38
904.349	19763.38
904.586	19679.38
904.823	19728.38
905.06	19479.38
905.297	19367.38
905.534	19252.38
905.771	19131.38
906.008	19071.38
906.245	18945.38
906.481	18740.38
906.718	18620.38
906.955	18609.38
907.191	18425.38
907.428	18336.38
907.664	18350.38
907.901	18192.38
908.137	18124.38
908.374	18153.38
908.61	18069.38
908.846	17982.38
909.083	17882.38
909.319	17806.38
909.555	17637.38
909.791	17453.38
910.027	17397.38
910.263	17182.38
910.499	17172.38
910.735	16974.38
910.971	16794.38
911.207	16738.38
911.443	16636.38
911.678	16524.38
911.914	16469.38
912.15	16499.38
912.385	16393.38
912.621	16442.38
912.857	16499.38
913.092	16385.38
913.328	16385.38
913.563	16284.38
913.798	16333.38
914.034	16219.38
914.269	16329.38
914.504	16186.38
914.739	16159.38
914.975	15979.38
915.21	15861.38
915.445	15858.38
915.68	15691.38
915.915	15446.38
916.15	15452.38
916.384	15180.38
916.619	15051.38
916.854	14821.38
917.089	14823.38
917.324	14652.38
917.558	14609.38
917.793	14471.38
918.028	14505.38
918.262	14376.38
918.497	14454.38
918.731	14387.38
918.965	14428.38
919.2	14263.38
919.434	14184.38
919.668	14202.38
919.903	14238.38
920.137	14220.38
920.371	14016.38
920.605	13937.38
920.839	13909.38
921.073	13737.38
921.307	13712.38
921.541	13602.38
921.775	13562.38
922.009	13479.38
922.243	13421.38
922.476	13451.38
922.71	13399.38
922.944	13384.38
923.177	13275.38
923.411	13343.38
923.644	13292.38
923.878	13205.38
924.111	13129.38
924.345	13200.38
924.578	13141.38
924.811	12958.38
925.045	12979.38
925.278	12853.38
925.511	12754.38
925.744	12654.38
925.977	12579.38
926.21	12439.38
926.443	12456.38
926.676	12251.38
926.909	12133.38
927.142	12168.38
927.375	12125.38
927.608	11901.38
927.841	11892.38
928.073	11874.38
928.306	11866.38
928.539	11811.38
928.771	11782.38
929.004	11762.38
929.236	11794.38
929.469	11786.38
929.701	11746.38
929.933	11798.38
930.166	11736.38
930.398	11791.38
930.63	11740.38
930.862	11722.38
931.094	11607.38
931.327	11595.38
931.559	11428.38
931.791	11419.38
932.023	11358.38
932.255	11293.38
932.486	11153.38
932.718	11147.38
932.95	11036.38
933.182	10949.38
933.413	10913.38
933.645	10830.38
933.877	10887.38
934.108	10811.38
934.34	10754.38
934.571	10683.38
934.803	10639.38
935.034	10563.38
935.265	10513.38
935.497	10549.38
935.728	10481.38
935.959	10451.38
936.19	10468.38
936.422	10379.38
936.653	10350.38
936.884	10277.38
937.115	10206.38
937.346	10186.38
937.577	10051.38
937.807	9963.38
938.038	9963.38
938.269	9928.38
938.5	9921.38
938.73	9935.38
938.961	9876.38
939.192	9823.38
939.422	9811.38
939.653	9818.38
939.883	9844.38
940.114	9856.38
940.344	9773.38
940.574	9774.38
940.805	9702.38
941.035	9642.38
941.265	9519.38
941.495	9528.38
941.726	9383.38
941.956	9376.38
942.186	9286.38
942.416	9264.38
942.646	9098.38
942.876	9072.38
943.105	9014.38
943.335	9015.38
943.565	8912.38
943.795	8869.38
944.024	8697.38
944.254	8687.38
944.484	8638.38
944.713	8658.38
944.943	8622.38
945.172	8536.38
945.402	8505.38
945.631	8488.38
945.86	8494.38
946.09	8507.38
946.319	8458.38
946.548	8470.38
946.777	8434.38
947.006	8414.38
947.235	8385.38
947.465	8342.38
947.694	8327.38
947.922	8198.38
948.151	8189.38
948.38	8124.38
948.609	8089.38
948.838	8051.38
949.067	7959.38
949.295	7928.38
949.524	7844.38
949.752	7776.38
949.981	7742.38
950.21	7746.38
950.438	7649.38
950.666	7629.38
950.895	7580.38
951.123	7541.38
951.351	7519.38
951.58	7465.38
951.808	7395.38
952.036	7383.38
952.264	7378.38
952.492	7326.38
952.72	7327.38
952.948	7282.38
953.176	7196.38
953.404	7161.38
953.632	7130.38
953.86	7076.38
954.088	6974.38
954.315	6978.38
954.543	6909.38
954.771	6878.38
954.998	6859.38
955.226	6818.38
955.453	6813.38
955.681	6772.38
955.908	6735.38
956.135	6795.38
956.363	6751.38
956.59	6723.38
956.817	6732.38
957.045	6693.38
957.272	6687.38
957.499	6649.38
957.726	6611.38
957.953	6548.38
958.18	6581.38
958.407	6522.38
958.634	6436.38
958.861	6406.38
959.087	6363.38
959.314	6356.38
959.541	6291.38
959.767	6282.38
959.994	6177.38
960.221	6186.38
960.447	6095.38
960.674	6111.38
960.9	6019.38
961.127	5965.38
961.353	5981.38
961.579	5898.38
961.806	5880.38
962.032	5822.38
962.258	5772.38
962.484	5798.38
962.71	5746.38
962.936	5738.38
963.162	5752.38
963.388	5742.38
963.614	5731.38
963.84	5630.38
964.066	5689.38
964.292	5599.38
964.518	5637.38
964.743	5561.38
964.969	5567.38
965.195	5588.38
965.42	5493.38
965.646	5416.38
965.871	5447.38
966.097	5423.38
966.322	5468.38
966.547	5397.38
966.773	5370.38
966.998	5380.38
967.223	5351.38
967.448	5220.38
967.674	5294.38
967.899	5212.38
968.124	5158.38
968.349	5145.38
968.574	5121.38
968.799	5112.38
969.024	5040.38
969.248	5017.38
969.473	5004.38
969.698	5035.38
969.923	4972.38
970.147	4894.38
970.372	4897.38
970.596	4865.38
970.821	4882.38
971.046	4869.38
971.27	4789.38
971.494	4764.38
971.719	4701.38
971.943	4673.38
972.167	4583.38
972.392	4651.38
972.616	4622.38
972.84	4551.38
973.064	4541.38
973.288	4553.38
973.512	4476.38
973.736	4492.38
973.96	4519.38
974.184	4436.38
974.408	4415.38
974.631	4455.38
974.855	4442.38
975.079	4433.38
975.303	4412.38
975.526	4395.38
975.75	4348.38
975.973	4296.38
976.197	4282.38
976.42	4264.38
976.644	4291.38
976.867	4237.38
977.09	4189.38
977.313	4181.38
977.537	4203.38
977.76	4138.38
977.983	4134.38
978.206	4069.38
978.429	4065.38
978.652	3994.38
978.875	3964.38
979.098	3965.38
979.321	3954.38
979.544	3892.38
979.767	3887.38
979.989	3910.38
980.212	3865.38
980.435	3785.38
980.657	3786.38
980.88	3805.38
981.102	3771.38
981.325	3746.38
981.547	3706.38
981.77	3690.38
981.992	3650.38
982.214	3690.38
982.437	3642.38
982.659	3615.38
982.881	3589.38
983.103	3625.38
983.325	3608.38
983.547	3543.38
983.769	3543.38
983.991	3532.38
984.213	3523.38
984.435	3501.38
984.657	3495.38
984.879	3492.38
985.1	3430.38
985.322	3443.38
985.544	3424.38
985.765	3385.38
985.987	3362.38
986.208	3357.38
986.43	3357.38
986.651	3318.38
986.873	3327.38
987.094	3291.38
987.315	3323.38
987.536	3247.38
987.758	3236.38
987.979	3202.38
988.2	3181.38
988.421	3145.38
988.642	3152.38
988.863	3119.38
989.084	3104.38
989.305	3064.38
989.526	3107.38
989.747	3067.38
989.967	3069.38
990.188	3022.38
990.409	2986.38
990.629	3016.38
990.85	2967.38
991.071	2975.38
991.291	2934.38
991.512	2876.38
991.732	2890.38
991.952	2878.38
992.173	2841.38
992.393	2864.38
992.613	2845.38
992.834	2870.38
993.054	2865.38
993.274	2827.38
993.494	2814.38
993.714	2788.38
993.934	2839.38
994.154	2818.38
994.374	2823.38
994.594	2749.38
994.813	2770.38
995.033	2757.38
995.253	2748.38
995.473	2759.38
995.692	2734.38
995.912	2699.38
996.131	2671.38
996.351	2650.38
996.57	2636.38
996.79	2600.38
997.009	2595.38
997.228	2553.38
997.448	2541.38
997.667	2565.38
997.886	2505.38
998.105	2489.38
998.325	2429.38
998.544	2476.38
998.763	2393.38
998.982	2416.38
999.201	2394.38
999.419	2382.38
999.638	2377.38
999.857	2366.38
1000.076	2377.38
1000.295	2339.38
1000.513	2318.38
1000.732	2314.38
1000.95	2294.38
1001.169	2330.38
1001.388	2290.38
1001.606	2267.38
1001.824	2257.38
1002.043	2241.38
1002.261	2263.38
1002.479	2270.38
1002.698	2248.38
1002.916	2236.38
1003.134	2261.38
1003.352	2230.38
1003.57	2213.38
1003.788	2183.38
1004.006	2202.38
1004.224	2192.38
1004.442	2169.38
1004.66	2162.38
1004.878	2187.38
1005.095	2172.38
1005.313	2172.38
1005.531	2155.38
1005.748	2169.38
1005.966	2246.38
1006.184	2135.38
1006.401	2150.38
1006.618	2133.38
1006.836	2113.38
1007.053	2104.38
1007.271	2137.38
1007.488	2124.38
1007.705	2155.38
1007.922	2179.38
1008.139	2132.38
1008.357	2136.38
1008.574	2133.38
1008.791	2167.38
1009.008	2207.38
1009.225	2232.38
1009.441	2308.38
1009.658	2287.38
1009.875	2304.38
1010.092	2312.38
1010.309	2294.38
1010.525	2254.38
1010.742	2224.38
1010.958	2154.38
1011.175	2196.38
1011.391	2141.38
1011.608	2130.38
1011.824	2142.38
1012.041	2095.38
1012.257	2119.38
1012.473	2064.38
1012.689	2059.38
1012.906	2052.38
1013.122	2039.38
1013.338	2038.38
1013.554	2056.38
1013.77	2059.38
1013.986	2074.38
1014.202	2110.38
1014.418	2194.38
1014.634	2225.38
1014.849	2262.38
1015.065	2301.38
1015.281	2287.38
1015.496	2279.38
1015.712	2249.38
1015.928	2240.38
1016.143	2138.38
1016.359	2152.38
1016.574	2075.38
1016.79	2023.38
1017.005	1973.38
1017.22	1911.38
1017.435	1843.38
1017.651	1825.38
1017.866	1804.38
1018.081	1719.38
1018.296	1668.38
1018.511	1723.38
1018.726	1682.38
1018.941	1687.38
1019.156	1653.38
1019.371	1660.38
1019.586	1656.38
1019.801	1666.38
1020.015	1625.38
1020.23	1642.38
1020.445	1600.38
1020.659	1577.38
1020.874	1590.38
1021.088	1522.38
1021.303	1474.38
1021.517	1470.38
1021.732	1440.38
1021.946	1418.38
1022.16	1448.38
1022.375	1376.38
1022.589	1355.38
1022.803	1315.38
1023.017	1309.38
1023.231	1276.38
1023.445	1279.38
1023.659	1221.38
1023.873	1210.38
1024.087	1169.38
1024.301	1143.38
1024.515	1152.38
1024.729	1123.38
1024.942	1082.38
1025.156	1087.38
1025.37	1058.38
1025.583	1047.38
1025.797	1012.38
1026.01	1027.38
1026.224	1009.38
1026.437	971.38
1026.651	925.38
1026.864	892.38
1027.077	913.38
1027.291	884.38
1027.504	842.38
1027.717	842.38
1027.93	801.38
1028.143	787.38
1028.356	768.38
1028.569	737.38
1028.782	693.38
1028.995	-3.62
1029.208	1.38
1029.421	1.38
1029.634	-3.62
