Data from QEP037381__535__16-08-44-084.txt Node

Date: Mon Mar 14 16:08:44 EDT 2022
User: dcclab
Spectrometer: QEP03738
Trigger mode: 4
Integration Time (sec): 2.500000E0
Scans to average: 1
Electric dark correction enabled: true
Nonlinearity correction enabled: false
Boxcar width: 0
XAxis mode: Wavelengths
Number of Pixels in Spectrum: 1044
>>>>>Begin Spectral Data<<<<<
783.959	12.88
784.218	0.88
784.476	-1.12
784.734	-4.12
784.992	244.88
785.251	236.88
785.509	220.88
785.767	215.88
786.025	219.88
786.283	216.88
786.541	214.88
786.798	201.88
787.056	206.88
787.314	168.88
787.572	190.88
787.83	187.88
788.087	188.88
788.345	195.88
788.602	191.88
788.86	178.88
789.117	191.88
789.375	175.88
789.632	179.88
789.89	174.88
790.147	189.88
790.404	187.88
790.661	189.88
790.919	201.88
791.176	194.88
791.433	194.88
791.69	195.88
791.947	200.88
792.204	188.88
792.461	201.88
792.718	201.88
792.974	196.88
793.231	202.88
793.488	231.88
793.745	219.88
794.001	227.88
794.258	248.88
794.514	247.88
794.771	249.88
795.027	247.88
795.284	264.88
795.54	279.88
795.797	286.88
796.053	328.88
796.309	345.88
796.565	365.88
796.822	403.88
797.078	446.88
797.334	516.88
797.59	606.88
797.846	730.88
798.102	939.88
798.358	1228.88
798.614	1781.88
798.869	2516.88
799.125	3705.88
799.381	5435.88
799.637	7704.88
799.892	10334.88
800.148	13370.88
800.403	16219.88
800.659	18738.88
800.914	20617.88
801.17	21968.88
801.425	22906.88
801.68	23569.88
801.936	24127.88
802.191	24602.88
802.446	25143.88
802.701	25627.88
802.957	26276.88
803.212	26806.88
803.467	27373.88
803.722	27868.88
803.977	28523.88
804.232	29028.88
804.486	29528.88
804.741	30106.88
804.996	30842.88
805.251	31378.88
805.505	31849.88
805.76	32555.88
806.015	33027.88
806.269	33410.88
806.524	33868.88
806.778	34089.88
807.033	34445.88
807.287	34849.88
807.541	35330.88
807.796	35867.88
808.05	36368.88
808.304	36657.88
808.558	36914.88
808.812	37069.88
809.066	37371.88
809.32	37702.88
809.574	38066.88
809.828	38441.88
810.082	38433.88
810.336	38806.88
810.59	39256.88
810.844	39778.88
811.097	40301.88
811.351	40834.88
811.605	41422.88
811.858	42153.88
812.112	42779.88
812.365	43438.88
812.619	44120.88
812.872	45014.88
813.126	45443.88
813.379	46078.88
813.632	46674.88
813.885	47387.88
814.139	48038.88
814.392	48774.88
814.645	49562.88
814.898	50462.88
815.151	51375.88
815.404	52350.88
815.657	53328.88
815.91	54190.88
816.163	54854.88
816.416	55433.88
816.668	55852.88
816.921	56177.88
817.174	56297.88
817.426	56537.88
817.679	56545.88
817.931	56394.88
818.184	56549.88
818.436	56693.88
818.689	56744.88
818.941	56673.88
819.194	56857.88
819.446	57254.88
819.698	57569.88
819.95	57898.88
820.202	58071.88
820.455	57918.88
820.707	58477.88
820.959	58450.88
821.211	58505.88
821.462	58540.88
821.714	58222.88
821.966	58101.88
822.218	57778.88
822.47	57566.88
822.722	57289.88
822.973	57110.88
823.225	56967.88
823.476	56886.88
823.728	56949.88
823.979	57233.88
824.231	57182.88
824.482	57112.88
824.734	57306.88
824.985	57132.88
825.236	57191.88
825.487	57128.88
825.739	56799.88
825.99	56748.88
826.241	56622.88
826.492	56372.88
826.743	56148.88
826.994	55717.88
827.245	55562.88
827.496	55463.88
827.747	55435.88
827.997	55485.88
828.248	55572.88
828.499	55637.88
828.75	55628.88
829	55648.88
829.251	55592.88
829.501	55542.88
829.752	55164.88
830.002	55001.88
830.253	54758.88
830.503	54219.88
830.753	54043.88
831.004	53868.88
831.254	53657.88
831.504	53318.88
831.754	53217.88
832.004	53383.88
832.254	53395.88
832.504	53529.88
832.754	53578.88
833.004	53392.88
833.254	53375.88
833.504	53047.88
833.754	53137.88
834.003	53078.88
834.253	52788.88
834.503	52436.88
834.752	52248.88
835.002	51976.88
835.252	51709.88
835.501	51544.88
835.75	51253.88
836	51378.88
836.249	51425.88
836.499	51424.88
836.748	51232.88
836.997	51376.88
837.246	51672.88
837.495	51994.88
837.744	52521.88
837.993	53123.88
838.242	53473.88
838.491	53581.88
838.74	52547.88
838.989	51604.88
839.238	50866.88
839.487	50261.88
839.736	49933.88
839.984	49894.88
840.233	49397.88
840.482	49148.88
840.73	49036.88
840.979	48891.88
841.227	48583.88
841.476	48531.88
841.724	48457.88
841.972	48345.88
842.221	48106.88
842.469	47879.88
842.717	47913.88
842.965	47700.88
843.213	47486.88
843.461	47306.88
843.71	47187.88
843.958	46931.88
844.205	46925.88
844.453	46825.88
844.701	46824.88
844.949	46646.88
845.197	46773.88
845.445	46703.88
845.692	46687.88
845.94	46917.88
846.188	46724.88
846.435	46778.88
846.683	46698.88
846.93	46442.88
847.178	46343.88
847.425	45770.88
847.672	45450.88
847.92	45256.88
848.167	44648.88
848.414	44361.88
848.661	44157.88
848.908	44035.88
849.155	43935.88
849.402	43852.88
849.649	43974.88
849.896	44213.88
850.143	44473.88
850.39	44932.88
850.637	44754.88
850.884	44840.88
851.131	44577.88
851.377	44419.88
851.624	44130.88
851.87	44060.88
852.117	43886.88
852.364	43534.88
852.61	43454.88
852.856	43455.88
853.103	43341.88
853.349	43152.88
853.595	43000.88
853.842	42701.88
854.088	42460.88
854.334	42573.88
854.58	42325.88
854.826	42197.88
855.072	41776.88
855.318	41383.88
855.564	41133.88
855.81	40842.88
856.056	40483.88
856.302	40177.88
856.548	39889.88
856.793	39652.88
857.039	39406.88
857.285	39267.88
857.53	39255.88
857.776	39392.88
858.021	39454.88
858.267	39554.88
858.512	39725.88
858.758	39738.88
859.003	39705.88
859.248	39656.88
859.493	39646.88
859.739	39505.88
859.984	39427.88
860.229	39208.88
860.474	38806.88
860.719	38702.88
860.964	38518.88
861.209	38138.88
861.454	37911.88
861.699	37572.88
861.943	37487.88
862.188	37398.88
862.433	37127.88
862.678	37119.88
862.922	37122.88
863.167	37033.88
863.411	36839.88
863.656	36953.88
863.9	36806.88
864.145	36643.88
864.389	36404.88
864.634	36230.88
864.878	36087.88
865.122	36033.88
865.366	35849.88
865.61	35814.88
865.855	35767.88
866.099	35782.88
866.343	35620.88
866.587	35617.88
866.831	35732.88
867.074	35774.88
867.318	35526.88
867.562	35557.88
867.806	35607.88
868.05	35615.88
868.293	35497.88
868.537	35440.88
868.78	35061.88
869.024	34973.88
869.267	34632.88
869.511	34380.88
869.754	34057.88
869.998	33740.88
870.241	33365.88
870.484	33349.88
870.728	33023.88
870.971	32936.88
871.214	32721.88
871.457	32591.88
871.7	32486.88
871.943	32626.88
872.186	32752.88
872.429	32783.88
872.672	32684.88
872.915	32626.88
873.158	32567.88
873.4	32624.88
873.643	32443.88
873.886	32271.88
874.128	32156.88
874.371	32128.88
874.613	32040.88
874.856	31825.88
875.098	31832.88
875.341	31737.88
875.583	31749.88
875.825	31465.88
876.068	31244.88
876.31	31252.88
876.552	30966.88
876.794	30621.88
877.036	30384.88
877.278	30298.88
877.52	30047.88
877.762	29906.88
878.004	29926.88
878.246	29658.88
878.488	29867.88
878.73	29711.88
878.972	29674.88
879.213	29674.88
879.455	29813.88
879.697	29625.88
879.938	29526.88
880.18	29453.88
880.421	29565.88
880.663	29320.88
880.904	29523.88
881.145	29681.88
881.387	29714.88
881.628	29534.88
881.869	29257.88
882.11	29034.88
882.352	29075.88
882.593	28739.88
882.834	28866.88
883.075	28616.88
883.316	28620.88
883.557	28524.88
883.797	28168.88
884.038	28024.88
884.279	27837.88
884.52	27420.88
884.761	27312.88
885.001	26892.88
885.242	26521.88
885.482	26684.88
885.723	26254.88
885.963	26248.88
886.204	26131.88
886.444	26126.88
886.685	25980.88
886.925	25821.88
887.165	25817.88
887.405	25601.88
887.646	25509.88
887.886	25444.88
888.126	25330.88
888.366	25344.88
888.606	25393.88
888.846	25494.88
889.086	25480.88
889.326	25424.88
889.565	25409.88
889.805	25224.88
890.045	25258.88
890.285	25264.88
890.524	25196.88
890.764	25041.88
891.003	24778.88
891.243	24608.88
891.482	24520.88
891.722	24261.88
891.961	24074.88
892.201	24069.88
892.44	23969.88
892.679	23739.88
892.918	23535.88
893.158	23565.88
893.397	23598.88
893.636	23488.88
893.875	23374.88
894.114	23165.88
894.353	23094.88
894.592	23032.88
894.831	22858.88
895.069	22821.88
895.308	22630.88
895.547	22467.88
895.786	22435.88
896.024	22400.88
896.263	22392.88
896.501	22255.88
896.74	22334.88
896.978	22135.88
897.217	22160.88
897.455	22102.88
897.694	22169.88
897.932	22004.88
898.17	21876.88
898.408	21748.88
898.646	21709.88
898.885	21538.88
899.123	21429.88
899.361	21331.88
899.599	21144.88
899.837	20980.88
900.075	20997.88
900.312	20866.88
900.55	20608.88
900.788	20322.88
901.026	20192.88
901.263	20022.88
901.501	19901.88
901.739	19698.88
901.976	19623.88
902.214	19596.88
902.451	19496.88
902.689	19413.88
902.926	19307.88
903.163	19331.88
903.401	19349.88
903.638	19351.88
903.875	19350.88
904.112	19211.88
904.349	19172.88
904.586	19223.88
904.823	19145.88
905.06	18992.88
905.297	18913.88
905.534	18695.88
905.771	18515.88
906.008	18453.88
906.245	18422.88
906.481	18265.88
906.718	18115.88
906.955	17984.88
907.191	17907.88
907.428	17775.88
907.664	17906.88
907.901	17702.88
908.137	17715.88
908.374	17645.88
908.61	17569.88
908.846	17392.88
909.083	17309.88
909.319	17263.88
909.555	17164.88
909.791	17026.88
910.027	16825.88
910.263	16706.88
910.499	16614.88
910.735	16486.88
910.971	16354.88
911.207	16282.88
911.443	16134.88
911.678	16103.88
911.914	15975.88
912.15	15914.88
912.385	15985.88
912.621	15888.88
912.857	16011.88
913.092	15955.88
913.328	15885.88
913.563	15840.88
913.798	15837.88
914.034	15861.88
914.269	15695.88
914.504	15669.88
914.739	15699.88
914.975	15523.88
915.21	15397.88
915.445	15289.88
915.68	15162.88
915.915	15097.88
916.15	14784.88
916.384	14716.88
916.619	14517.88
916.854	14433.88
917.089	14344.88
917.324	14331.88
917.558	14236.88
917.793	14096.88
918.028	14023.88
918.262	13954.88
918.497	14006.88
918.731	13947.88
918.965	13950.88
919.2	13951.88
919.434	13824.88
919.668	13808.88
919.903	13748.88
920.137	13772.88
920.371	13694.88
920.605	13547.88
920.839	13474.88
921.073	13376.88
921.307	13305.88
921.541	13164.88
921.775	13220.88
922.009	13149.88
922.243	13147.88
922.476	13056.88
922.71	13036.88
922.944	12989.88
923.177	12937.88
923.411	12951.88
923.644	12908.88
923.878	12780.88
924.111	12899.88
924.345	12811.88
924.578	12626.88
924.811	12643.88
925.045	12535.88
925.278	12491.88
925.511	12488.88
925.744	12337.88
925.977	12249.88
926.21	12168.88
926.443	11970.88
926.676	11971.88
926.909	11857.88
927.142	11803.88
927.375	11741.88
927.608	11555.88
927.841	11583.88
928.073	11502.88
928.306	11559.88
928.539	11453.88
928.771	11425.88
929.004	11452.88
929.236	11483.88
929.469	11441.88
929.701	11473.88
929.933	11497.88
930.166	11465.88
930.398	11478.88
930.63	11401.88
930.862	11371.88
931.094	11317.88
931.327	11228.88
931.559	11173.88
931.791	11090.88
932.023	11043.88
932.255	10882.88
932.486	10817.88
932.718	10768.88
932.95	10690.88
933.182	10666.88
933.413	10683.88
933.645	10618.88
933.877	10534.88
934.108	10503.88
934.34	10450.88
934.571	10374.88
934.803	10354.88
935.034	10300.88
935.265	10204.88
935.497	10214.88
935.728	10185.88
935.959	10189.88
936.19	10096.88
936.422	10139.88
936.653	10055.88
936.884	9988.88
937.115	9841.88
937.346	9782.88
937.577	9803.88
937.807	9658.88
938.038	9699.88
938.269	9695.88
938.5	9644.88
938.73	9658.88
938.961	9600.88
939.192	9609.88
939.422	9560.88
939.653	9613.88
939.883	9601.88
940.114	9532.88
940.344	9579.88
940.574	9534.88
940.805	9509.88
941.035	9393.88
941.265	9315.88
941.495	9164.88
941.726	9124.88
941.956	9085.88
942.186	9140.88
942.416	8932.88
942.646	8918.88
942.876	8775.88
943.105	8877.88
943.335	8695.88
943.565	8693.88
943.795	8577.88
944.024	8485.88
944.254	8431.88
944.484	8412.88
944.713	8411.88
944.943	8402.88
945.172	8388.88
945.402	8362.88
945.631	8234.88
945.86	8262.88
946.09	8245.88
946.319	8226.88
946.548	8238.88
946.777	8189.88
947.006	8160.88
947.235	8238.88
947.465	8146.88
947.694	8130.88
947.922	8051.88
948.151	7936.88
948.38	7895.88
948.609	7822.88
948.838	7852.88
949.067	7778.88
949.295	7715.88
949.524	7599.88
949.752	7574.88
949.981	7624.88
950.21	7501.88
950.438	7444.88
950.666	7435.88
950.895	7421.88
951.123	7363.88
951.351	7250.88
951.58	7272.88
951.808	7244.88
952.036	7235.88
952.264	7230.88
952.492	7183.88
952.72	7104.88
952.948	7081.88
953.176	6992.88
953.404	7004.88
953.632	6959.88
953.86	6869.88
954.088	6795.88
954.315	6728.88
954.543	6665.88
954.771	6716.88
954.998	6694.88
955.226	6650.88
955.453	6622.88
955.681	6637.88
955.908	6567.88
956.135	6521.88
956.363	6440.88
956.59	6546.88
956.817	6483.88
957.045	6488.88
957.272	6517.88
957.499	6436.88
957.726	6464.88
957.953	6410.88
958.18	6401.88
958.407	6322.88
958.634	6264.88
958.861	6269.88
959.087	6283.88
959.314	6156.88
959.541	6125.88
959.767	6094.88
959.994	5999.88
960.221	5975.88
960.447	5955.88
960.674	5933.88
960.9	5789.88
961.127	5830.88
961.353	5805.88
961.579	5785.88
961.806	5694.88
962.032	5646.88
962.258	5616.88
962.484	5613.88
962.71	5577.88
962.936	5606.88
963.162	5555.88
963.388	5554.88
963.614	5573.88
963.84	5504.88
964.066	5491.88
964.292	5522.88
964.518	5466.88
964.743	5428.88
964.969	5461.88
965.195	5378.88
965.42	5363.88
965.646	5342.88
965.871	5310.88
966.097	5252.88
966.322	5304.88
966.547	5242.88
966.773	5217.88
966.998	5182.88
967.223	5188.88
967.448	5112.88
967.674	5147.88
967.899	5105.88
968.124	5017.88
968.349	5041.88
968.574	5029.88
968.799	4968.88
969.024	4938.88
969.248	4894.88
969.473	4904.88
969.698	4874.88
969.923	4849.88
970.147	4791.88
970.372	4779.88
970.596	4742.88
970.821	4729.88
971.046	4732.88
971.27	4668.88
971.494	4655.88
971.719	4577.88
971.943	4578.88
972.167	4549.88
972.392	4523.88
972.616	4506.88
972.84	4494.88
973.064	4419.88
973.288	4437.88
973.512	4385.88
973.736	4386.88
973.96	4342.88
974.184	4327.88
974.408	4341.88
974.631	4325.88
974.855	4330.88
975.079	4296.88
975.303	4291.88
975.526	4212.88
975.75	4227.88
975.973	4190.88
976.197	4231.88
976.42	4185.88
976.644	4170.88
976.867	4168.88
977.09	4095.88
977.313	4094.88
977.537	3983.88
977.76	3989.88
977.983	3976.88
978.206	3980.88
978.429	3959.88
978.652	3940.88
978.875	3867.88
979.098	3864.88
979.321	3885.88
979.544	3788.88
979.767	3769.88
979.989	3753.88
980.212	3785.88
980.435	3699.88
980.657	3694.88
980.88	3677.88
981.102	3693.88
981.325	3638.88
981.547	3592.88
981.77	3632.88
981.992	3630.88
982.214	3598.88
982.437	3539.88
982.659	3490.88
982.881	3554.88
983.103	3527.88
983.325	3549.88
983.547	3469.88
983.769	3436.88
983.991	3483.88
984.213	3425.88
984.435	3467.88
984.657	3433.88
984.879	3403.88
985.1	3396.88
985.322	3391.88
985.544	3292.88
985.765	3327.88
985.987	3307.88
986.208	3274.88
986.43	3296.88
986.651	3257.88
986.873	3166.88
987.094	3201.88
987.315	3171.88
987.536	3153.88
987.758	3154.88
987.979	3123.88
988.2	3126.88
988.421	3100.88
988.642	3077.88
988.863	3013.88
989.084	3038.88
989.305	2995.88
989.526	3012.88
989.747	3000.88
989.967	2954.88
990.188	2952.88
990.409	2940.88
990.629	2895.88
990.85	2900.88
991.071	2887.88
991.291	2841.88
991.512	2823.88
991.732	2848.88
991.952	2849.88
992.173	2820.88
992.393	2800.88
992.613	2822.88
992.834	2771.88
993.054	2761.88
993.274	2773.88
993.494	2744.88
993.714	2769.88
993.934	2750.88
994.154	2733.88
994.374	2735.88
994.594	2735.88
994.813	2700.88
995.033	2696.88
995.253	2671.88
995.473	2671.88
995.692	2627.88
995.912	2598.88
996.131	2612.88
996.351	2599.88
996.57	2545.88
996.79	2556.88
997.009	2519.88
997.228	2532.88
997.448	2507.88
997.667	2451.88
997.886	2439.88
998.105	2436.88
998.325	2397.88
998.544	2387.88
998.763	2343.88
998.982	2373.88
999.201	2343.88
999.419	2323.88
999.638	2333.88
999.857	2268.88
1000.076	2306.88
1000.295	2264.88
1000.513	2293.88
1000.732	2273.88
1000.95	2284.88
1001.169	2269.88
1001.388	2239.88
1001.606	2266.88
1001.824	2246.88
1002.043	2230.88
1002.261	2210.88
1002.479	2234.88
1002.698	2197.88
1002.916	2182.88
1003.134	2161.88
1003.352	2185.88
1003.57	2182.88
1003.788	2162.88
1004.006	2149.88
1004.224	2167.88
1004.442	2133.88
1004.66	2138.88
1004.878	2128.88
1005.095	2107.88
1005.313	2128.88
1005.531	2141.88
1005.748	2108.88
1005.966	2192.88
1006.184	2114.88
1006.401	2092.88
1006.618	2089.88
1006.836	2042.88
1007.053	2099.88
1007.271	2113.88
1007.488	2079.88
1007.705	2097.88
1007.922	2090.88
1008.139	2068.88
1008.357	2087.88
1008.574	2147.88
1008.791	2160.88
1009.008	2189.88
1009.225	2189.88
1009.441	2234.88
1009.658	2222.88
1009.875	2271.88
1010.092	2268.88
1010.309	2259.88
1010.525	2240.88
1010.742	2195.88
1010.958	2191.88
1011.175	2184.88
1011.391	2131.88
1011.608	2140.88
1011.824	2139.88
1012.041	2038.88
1012.257	2046.88
1012.473	2028.88
1012.689	2024.88
1012.906	1989.88
1013.122	2015.88
1013.338	1997.88
1013.554	2019.88
1013.77	2023.88
1013.986	2019.88
1014.202	2109.88
1014.418	2098.88
1014.634	2190.88
1014.849	2232.88
1015.065	2252.88
1015.281	2263.88
1015.496	2278.88
1015.712	2230.88
1015.928	2205.88
1016.143	2115.88
1016.359	2085.88
1016.574	2027.88
1016.79	2001.88
1017.005	1941.88
1017.22	1884.88
1017.435	1824.88
1017.651	1824.88
1017.866	1752.88
1018.081	1722.88
1018.296	1660.88
1018.511	1695.88
1018.726	1697.88
1018.941	1663.88
1019.156	1622.88
1019.371	1638.88
1019.586	1644.88
1019.801	1623.88
1020.015	1599.88
1020.23	1657.88
1020.445	1543.88
1020.659	1558.88
1020.874	1545.88
1021.088	1518.88
1021.303	1479.88
1021.517	1422.88
1021.732	1381.88
1021.946	1374.88
1022.16	1403.88
1022.375	1331.88
1022.589	1348.88
1022.803	1310.88
1023.017	1266.88
1023.231	1236.88
1023.445	1246.88
1023.659	1197.88
1023.873	1197.88
1024.087	1165.88
1024.301	1143.88
1024.515	1142.88
1024.729	1113.88
1024.942	1070.88
1025.156	1087.88
1025.37	1073.88
1025.583	1036.88
1025.797	1004.88
1026.01	1006.88
1026.224	964.88
1026.437	936.88
1026.651	925.88
1026.864	895.88
1027.077	905.88
1027.291	844.88
1027.504	834.88
1027.717	799.88
1027.93	798.88
1028.143	776.88
1028.356	741.88
1028.569	718.88
1028.782	677.88
1028.995	-0.12
1029.208	-3.12
1029.421	-3.12
1029.634	-2.12
