Data from QEP037381__533__16-08-39-086.txt Node

Date: Mon Mar 14 16:08:39 EDT 2022
User: dcclab
Spectrometer: QEP03738
Trigger mode: 4
Integration Time (sec): 2.500000E0
Scans to average: 1
Electric dark correction enabled: true
Nonlinearity correction enabled: false
Boxcar width: 0
XAxis mode: Wavelengths
Number of Pixels in Spectrum: 1044
>>>>>Begin Spectral Data<<<<<
783.959	12.38
784.218	4.38
784.476	-3.62
784.734	-6.62
784.992	255.38
785.251	238.38
785.509	218.38
785.767	211.38
786.025	223.38
786.283	215.38
786.541	210.38
786.798	209.38
787.056	199.38
787.314	188.38
787.572	196.38
787.83	195.38
788.087	192.38
788.345	199.38
788.602	182.38
788.86	196.38
789.117	188.38
789.375	173.38
789.632	184.38
789.89	177.38
790.147	200.38
790.404	202.38
790.661	192.38
790.919	198.38
791.176	199.38
791.433	196.38
791.69	202.38
791.947	204.38
792.204	182.38
792.461	194.38
792.718	204.38
792.974	208.38
793.231	209.38
793.488	232.38
793.745	231.38
794.001	241.38
794.258	253.38
794.514	234.38
794.771	263.38
795.027	271.38
795.284	284.38
795.54	289.38
795.797	295.38
796.053	340.38
796.309	335.38
796.565	362.38
796.822	415.38
797.078	454.38
797.334	518.38
797.59	610.38
797.846	763.38
798.102	946.38
798.358	1269.38
798.614	1777.38
798.869	2555.38
799.125	3756.38
799.381	5461.38
799.637	7758.38
799.892	10488.38
800.148	13376.38
800.403	16320.38
800.659	18829.38
800.914	20747.38
801.17	22102.38
801.425	23025.38
801.68	23633.38
801.936	24140.38
802.191	24819.38
802.446	25337.38
802.701	25838.38
802.957	26413.38
803.212	26988.38
803.467	27498.38
803.722	28059.38
803.977	28602.38
804.232	29205.38
804.486	29680.38
804.741	30229.38
804.996	30953.38
805.251	31450.38
805.505	32142.38
805.76	32603.38
806.015	33073.38
806.269	33529.38
806.524	33930.38
806.778	34436.38
807.033	34594.38
807.287	35103.38
807.541	35675.38
807.796	36241.38
808.05	36561.38
808.304	36920.38
808.558	37122.38
808.812	37296.38
809.066	37583.38
809.32	37953.38
809.574	38133.38
809.828	38458.38
810.082	38763.38
810.336	39032.38
810.59	39445.38
810.844	39989.38
811.097	40366.38
811.351	40996.38
811.605	41744.38
811.858	42405.38
812.112	43111.38
812.365	43813.38
812.619	44453.38
812.872	45201.38
813.126	45717.38
813.379	46468.38
813.632	47127.38
813.885	47638.38
814.139	48306.38
814.392	49172.38
814.645	49863.38
814.898	50817.38
815.151	51771.38
815.404	52872.38
815.657	53591.38
815.91	54432.38
816.163	55312.38
816.416	55798.38
816.668	56018.38
816.921	56368.38
817.174	56820.38
817.426	56838.38
817.679	56859.38
817.931	56905.38
818.184	56792.38
818.436	56645.38
818.689	56885.38
818.941	57041.38
819.194	57299.38
819.446	57449.38
819.698	57853.38
819.95	58149.38
820.202	58358.38
820.455	58425.38
820.707	58655.38
820.959	58757.38
821.211	58791.38
821.462	58851.38
821.714	58560.38
821.966	58329.38
822.218	58097.38
822.47	57901.38
822.722	57586.38
822.973	57396.38
823.225	57440.38
823.476	57268.38
823.728	57158.38
823.979	57413.38
824.231	57499.38
824.482	57510.38
824.734	57552.38
824.985	57235.38
825.236	57447.38
825.487	57251.38
825.739	57199.38
825.99	57003.38
826.241	56927.38
826.492	56518.38
826.743	56437.38
826.994	56112.38
827.245	55956.38
827.496	55785.38
827.747	55698.38
827.997	55845.38
828.248	56006.38
828.499	55934.38
828.75	55942.38
829	55799.38
829.251	55827.38
829.501	55656.38
829.752	55736.38
830.002	55265.38
830.253	54986.38
830.503	54833.38
830.753	54245.38
831.004	54213.38
831.254	53845.38
831.504	53850.38
831.754	53824.38
832.004	53634.38
832.254	53764.38
832.504	53845.38
832.754	53953.38
833.004	53800.38
833.254	53624.38
833.504	53598.38
833.754	53466.38
834.003	53223.38
834.253	53079.38
834.503	52883.38
834.752	52482.38
835.002	52282.38
835.252	52133.38
835.501	51992.38
835.75	51744.38
836	51619.38
836.249	51635.38
836.499	51727.38
836.748	51644.38
836.997	51609.38
837.246	51817.38
837.495	52243.38
837.744	52815.38
837.993	53416.38
838.242	54075.38
838.491	53734.38
838.74	52930.38
838.989	51749.38
839.238	51149.38
839.487	50626.38
839.736	50187.38
839.984	49855.38
840.233	49668.38
840.482	49336.38
840.73	49323.38
840.979	48948.38
841.227	48994.38
841.476	48849.38
841.724	48691.38
841.972	48377.38
842.221	48403.38
842.469	48236.38
842.717	48187.38
842.965	47771.38
843.213	47840.38
843.461	47601.38
843.71	47403.38
843.958	47118.38
844.205	47115.38
844.453	47144.38
844.701	47040.38
844.949	47010.38
845.197	46953.38
845.445	47026.38
845.692	46940.38
845.94	47141.38
846.188	46949.38
846.435	46969.38
846.683	46907.38
846.93	46770.38
847.178	46554.38
847.425	46085.38
847.672	45883.38
847.92	45303.38
848.167	45100.38
848.414	44618.38
848.661	44300.38
848.908	44281.38
849.155	44141.38
849.402	44192.38
849.649	44287.38
849.896	44489.38
850.143	44812.38
850.39	45045.38
850.637	45088.38
850.884	45062.38
851.131	44803.38
851.377	44729.38
851.624	44410.38
851.87	44208.38
852.117	43954.38
852.364	43846.38
852.61	43817.38
852.856	43573.38
853.103	43619.38
853.349	43430.38
853.595	43280.38
853.842	42880.38
854.088	42738.38
854.334	42751.38
854.58	42574.38
854.826	42200.38
855.072	42052.38
855.318	41698.38
855.564	41262.38
855.81	41050.38
856.056	40584.38
856.302	40327.38
856.548	40069.38
856.793	40012.38
857.039	39486.38
857.285	39495.38
857.53	39444.38
857.776	39557.38
858.021	39579.38
858.267	39705.38
858.512	39965.38
858.758	39928.38
859.003	39939.38
859.248	39888.38
859.493	39923.38
859.739	39788.38
859.984	39807.38
860.229	39195.38
860.474	39214.38
860.719	38877.38
860.964	38589.38
861.209	38407.38
861.454	38207.38
861.699	37993.38
861.943	37693.38
862.188	37605.38
862.433	37465.38
862.678	37353.38
862.922	37272.38
863.167	37410.38
863.411	37143.38
863.656	36957.38
863.9	36958.38
864.145	36931.38
864.389	36572.38
864.634	36380.38
864.878	36335.38
865.122	36233.38
865.366	36102.38
865.61	36002.38
865.855	35915.38
866.099	35737.38
866.343	35983.38
866.587	35694.38
866.831	35748.38
867.074	35807.38
867.318	35754.38
867.562	35928.38
867.806	35751.38
868.05	35751.38
868.293	35681.38
868.537	35579.38
868.78	35274.38
869.024	35132.38
869.267	34786.38
869.511	34620.38
869.754	34235.38
869.998	34028.38
870.241	33567.38
870.484	33471.38
870.728	33298.38
870.971	32972.38
871.214	32848.38
871.457	32792.38
871.7	32777.38
871.943	32863.38
872.186	32868.38
872.429	32895.38
872.672	32905.38
872.915	32946.38
873.158	32687.38
873.4	32648.38
873.643	32687.38
873.886	32490.38
874.128	32340.38
874.371	32264.38
874.613	32229.38
874.856	32102.38
875.098	31998.38
875.341	31904.38
875.583	31716.38
875.825	31695.38
876.068	31556.38
876.31	31315.38
876.552	31116.38
876.794	30796.38
877.036	30551.38
877.278	30373.38
877.52	30112.38
877.762	30153.38
878.004	29976.38
878.246	29950.38
878.488	29925.38
878.73	29879.38
878.972	29909.38
879.213	29780.38
879.455	29839.38
879.697	29835.38
879.938	29780.38
880.18	29642.38
880.421	29578.38
880.663	29571.38
880.904	29671.38
881.145	29817.38
881.387	29935.38
881.628	29710.38
881.869	29499.38
882.11	29302.38
882.352	29154.38
882.593	28856.38
882.834	28843.38
883.075	28729.38
883.316	28769.38
883.557	28592.38
883.797	28421.38
884.038	28192.38
884.279	27903.38
884.52	27591.38
884.761	27248.38
885.001	27094.38
885.242	26773.38
885.482	26716.38
885.723	26621.38
885.963	26376.38
886.204	26301.38
886.444	26185.38
886.685	26164.38
886.925	26031.38
887.165	25963.38
887.405	25674.38
887.646	25687.38
887.886	25543.38
888.126	25501.38
888.366	25552.38
888.606	25549.38
888.846	25478.38
889.086	25540.38
889.326	25618.38
889.565	25582.38
889.805	25484.38
890.045	25395.38
890.285	25287.38
890.524	25301.38
890.764	25245.38
891.003	25016.38
891.243	24664.38
891.482	24528.38
891.722	24319.38
891.961	24160.38
892.201	24191.38
892.44	23833.38
892.679	23902.38
892.918	23765.38
893.158	23666.38
893.397	23568.38
893.636	23534.38
893.875	23437.38
894.114	23303.38
894.353	23184.38
894.592	23127.38
894.831	23074.38
895.069	22934.38
895.308	22749.38
895.547	22596.38
895.786	22493.38
896.024	22434.38
896.263	22362.38
896.501	22465.38
896.74	22430.38
896.978	22367.38
897.217	22380.38
897.455	22215.38
897.694	22209.38
897.932	22042.38
898.17	21911.38
898.408	21951.38
898.646	21748.38
898.885	21751.38
899.123	21566.38
899.361	21480.38
899.599	21284.38
899.837	21110.38
900.075	20990.38
900.312	20865.38
900.55	20710.38
900.788	20542.38
901.026	20325.38
901.263	20145.38
901.501	19990.38
901.739	19880.38
901.976	19708.38
902.214	19662.38
902.451	19594.38
902.689	19653.38
902.926	19450.38
903.163	19397.38
903.401	19470.38
903.638	19367.38
903.875	19487.38
904.112	19372.38
904.349	19241.38
904.586	19219.38
904.823	19160.38
905.06	19153.38
905.297	18907.38
905.534	18861.38
905.771	18664.38
906.008	18551.38
906.245	18404.38
906.481	18389.38
906.718	18262.38
906.955	18016.38
907.191	17973.38
907.428	17927.38
907.664	17855.38
907.901	17794.38
908.137	17760.38
908.374	17720.38
908.61	17681.38
908.846	17550.38
909.083	17349.38
909.319	17322.38
909.555	17287.38
909.791	17087.38
910.027	16872.38
910.263	16863.38
910.499	16682.38
910.735	16522.38
910.971	16394.38
911.207	16257.38
911.443	16221.38
911.678	16229.38
911.914	16167.38
912.15	16001.38
912.385	16042.38
912.621	16015.38
912.857	15990.38
913.092	15953.38
913.328	15959.38
913.563	15895.38
913.798	15885.38
914.034	15846.38
914.269	15817.38
914.504	15820.38
914.739	15659.38
914.975	15681.38
915.21	15502.38
915.445	15321.38
915.68	15319.38
915.915	15122.38
916.15	14936.38
916.384	14677.38
916.619	14597.38
916.854	14528.38
917.089	14479.38
917.324	14436.38
917.558	14175.38
917.793	14101.38
918.028	14083.38
918.262	14122.38
918.497	14078.38
918.731	14045.38
918.965	14032.38
919.2	14006.38
919.434	13989.38
919.668	13970.38
919.903	13800.38
920.137	13819.38
920.371	13717.38
920.605	13712.38
920.839	13616.38
921.073	13395.38
921.307	13362.38
921.541	13276.38
921.775	13134.38
922.009	13186.38
922.243	13158.38
922.476	12988.38
922.71	13056.38
922.944	13080.38
923.177	12973.38
923.411	13061.38
923.644	13025.38
923.878	12844.38
924.111	12856.38
924.345	12853.38
924.578	12812.38
924.811	12662.38
925.045	12690.38
925.278	12589.38
925.511	12451.38
925.744	12322.38
925.977	12287.38
926.21	12214.38
926.443	12156.38
926.676	12004.38
926.909	11906.38
927.142	11800.38
927.375	11740.38
927.608	11647.38
927.841	11700.38
928.073	11693.38
928.306	11559.38
928.539	11481.38
928.771	11561.38
929.004	11397.38
929.236	11532.38
929.469	11551.38
929.701	11464.38
929.933	11483.38
930.166	11457.38
930.398	11487.38
930.63	11476.38
930.862	11419.38
931.094	11338.38
931.327	11274.38
931.559	11186.38
931.791	11167.38
932.023	11030.38
932.255	11027.38
932.486	10853.38
932.718	10862.38
932.95	10676.38
933.182	10707.38
933.413	10636.38
933.645	10512.38
933.877	10639.38
934.108	10588.38
934.34	10483.38
934.571	10492.38
934.803	10377.38
935.034	10332.38
935.265	10310.38
935.497	10302.38
935.728	10287.38
935.959	10260.38
936.19	10219.38
936.422	10111.38
936.653	10067.38
936.884	9973.38
937.115	9939.38
937.346	9950.38
937.577	9755.38
937.807	9675.38
938.038	9700.38
938.269	9687.38
938.5	9584.38
938.73	9668.38
938.961	9667.38
939.192	9639.38
939.422	9688.38
939.653	9630.38
939.883	9564.38
940.114	9574.38
940.344	9547.38
940.574	9494.38
940.805	9446.38
941.035	9377.38
941.265	9350.38
941.495	9287.38
941.726	9231.38
941.956	9181.38
942.186	9127.38
942.416	8977.38
942.646	8966.38
942.876	8863.38
943.105	8840.38
943.335	8770.38
943.565	8664.38
943.795	8612.38
944.024	8561.38
944.254	8501.38
944.484	8421.38
944.713	8483.38
944.943	8398.38
945.172	8297.38
945.402	8336.38
945.631	8368.38
945.86	8271.38
946.09	8309.38
946.319	8266.38
946.548	8295.38
946.777	8231.38
947.006	8184.38
947.235	8215.38
947.465	8191.38
947.694	8111.38
947.922	8081.38
948.151	8005.38
948.38	7890.38
948.609	7854.38
948.838	7801.38
949.067	7802.38
949.295	7773.38
949.524	7688.38
949.752	7651.38
949.981	7570.38
950.21	7529.38
950.438	7515.38
950.666	7439.38
950.895	7441.38
951.123	7367.38
951.351	7337.38
951.58	7316.38
951.808	7266.38
952.036	7298.38
952.264	7220.38
952.492	7199.38
952.72	7152.38
952.948	7114.38
953.176	7061.38
953.404	6958.38
953.632	7003.38
953.86	6896.38
954.088	6856.38
954.315	6781.38
954.543	6759.38
954.771	6772.38
954.998	6724.38
955.226	6678.38
955.453	6625.38
955.681	6643.38
955.908	6580.38
956.135	6618.38
956.363	6545.38
956.59	6580.38
956.817	6599.38
957.045	6509.38
957.272	6534.38
957.499	6467.38
957.726	6449.38
957.953	6407.38
958.18	6406.38
958.407	6382.38
958.634	6312.38
958.861	6269.38
959.087	6240.38
959.314	6172.38
959.541	6182.38
959.767	6126.38
959.994	6079.38
960.221	6053.38
960.447	5974.38
960.674	5934.38
960.9	5914.38
961.127	5838.38
961.353	5823.38
961.579	5818.38
961.806	5705.38
962.032	5692.38
962.258	5699.38
962.484	5682.38
962.71	5687.38
962.936	5615.38
963.162	5583.38
963.388	5580.38
963.614	5615.38
963.84	5540.38
964.066	5513.38
964.292	5553.38
964.518	5511.38
964.743	5516.38
964.969	5465.38
965.195	5391.38
965.42	5402.38
965.646	5376.38
965.871	5330.38
966.097	5313.38
966.322	5291.38
966.547	5295.38
966.773	5231.38
966.998	5218.38
967.223	5205.38
967.448	5214.38
967.674	5206.38
967.899	5118.38
968.124	5052.38
968.349	5089.38
968.574	5028.38
968.799	5001.38
969.024	4975.38
969.248	4916.38
969.473	4879.38
969.698	4855.38
969.923	4875.38
970.147	4820.38
970.372	4842.38
970.596	4743.38
970.821	4767.38
971.046	4726.38
971.27	4700.38
971.494	4663.38
971.719	4606.38
971.943	4620.38
972.167	4557.38
972.392	4516.38
972.616	4512.38
972.84	4459.38
973.064	4396.38
973.288	4427.38
973.512	4431.38
973.736	4412.38
973.96	4398.38
974.184	4333.38
974.408	4400.38
974.631	4390.38
974.855	4379.38
975.079	4329.38
975.303	4325.38
975.526	4300.38
975.75	4267.38
975.973	4269.38
976.197	4241.38
976.42	4188.38
976.644	4191.38
976.867	4178.38
977.09	4158.38
977.313	4073.38
977.537	4060.38
977.76	4015.38
977.983	4041.38
978.206	3978.38
978.429	3957.38
978.652	3930.38
978.875	3876.38
979.098	3856.38
979.321	3872.38
979.544	3834.38
979.767	3831.38
979.989	3779.38
980.212	3790.38
980.435	3737.38
980.657	3700.38
980.88	3736.38
981.102	3671.38
981.325	3666.38
981.547	3650.38
981.77	3589.38
981.992	3612.38
982.214	3627.38
982.437	3601.38
982.659	3561.38
982.881	3591.38
983.103	3535.38
983.325	3558.38
983.547	3460.38
983.769	3452.38
983.991	3484.38
984.213	3471.38
984.435	3439.38
984.657	3477.38
984.879	3388.38
985.1	3362.38
985.322	3391.38
985.544	3343.38
985.765	3327.38
985.987	3300.38
986.208	3346.38
986.43	3281.38
986.651	3259.38
986.873	3267.38
987.094	3227.38
987.315	3242.38
987.536	3185.38
987.758	3180.38
987.979	3130.38
988.2	3114.38
988.421	3138.38
988.642	3140.38
988.863	3034.38
989.084	3021.38
989.305	3032.38
989.526	3039.38
989.747	2990.38
989.967	3015.38
990.188	2988.38
990.409	2931.38
990.629	2907.38
990.85	2909.38
991.071	2893.38
991.291	2825.38
991.512	2853.38
991.732	2845.38
991.952	2842.38
992.173	2810.38
992.393	2844.38
992.613	2795.38
992.834	2810.38
993.054	2832.38
993.274	2765.38
993.494	2729.38
993.714	2771.38
993.934	2753.38
994.154	2758.38
994.374	2733.38
994.594	2703.38
994.813	2700.38
995.033	2701.38
995.253	2677.38
995.473	2693.38
995.692	2641.38
995.912	2671.38
996.131	2619.38
996.351	2577.38
996.57	2571.38
996.79	2543.38
997.009	2535.38
997.228	2514.38
997.448	2505.38
997.667	2447.38
997.886	2414.38
998.105	2411.38
998.325	2423.38
998.544	2409.38
998.763	2392.38
998.982	2380.38
999.201	2329.38
999.419	2296.38
999.638	2371.38
999.857	2321.38
1000.076	2324.38
1000.295	2264.38
1000.513	2304.38
1000.732	2265.38
1000.95	2226.38
1001.169	2272.38
1001.388	2257.38
1001.606	2227.38
1001.824	2238.38
1002.043	2224.38
1002.261	2191.38
1002.479	2235.38
1002.698	2200.38
1002.916	2178.38
1003.134	2197.38
1003.352	2145.38
1003.57	2141.38
1003.788	2174.38
1004.006	2155.38
1004.224	2165.38
1004.442	2150.38
1004.66	2165.38
1004.878	2138.38
1005.095	2133.38
1005.313	2152.38
1005.531	2111.38
1005.748	2099.38
1005.966	2221.38
1006.184	2117.38
1006.401	2113.38
1006.618	2095.38
1006.836	2095.38
1007.053	2040.38
1007.271	2107.38
1007.488	2070.38
1007.705	2143.38
1007.922	2105.38
1008.139	2087.38
1008.357	2149.38
1008.574	2117.38
1008.791	2134.38
1009.008	2211.38
1009.225	2239.38
1009.441	2215.38
1009.658	2233.38
1009.875	2265.38
1010.092	2262.38
1010.309	2238.38
1010.525	2230.38
1010.742	2191.38
1010.958	2164.38
1011.175	2160.38
1011.391	2148.38
1011.608	2123.38
1011.824	2091.38
1012.041	2065.38
1012.257	2097.38
1012.473	2063.38
1012.689	2048.38
1012.906	2024.38
1013.122	2001.38
1013.338	1956.38
1013.554	2007.38
1013.77	2021.38
1013.986	2068.38
1014.202	2127.38
1014.418	2121.38
1014.634	2201.38
1014.849	2226.38
1015.065	2264.38
1015.281	2273.38
1015.496	2266.38
1015.712	2216.38
1015.928	2168.38
1016.143	2146.38
1016.359	2078.38
1016.574	2026.38
1016.79	1994.38
1017.005	1953.38
1017.22	1881.38
1017.435	1850.38
1017.651	1799.38
1017.866	1755.38
1018.081	1697.38
1018.296	1699.38
1018.511	1674.38
1018.726	1684.38
1018.941	1644.38
1019.156	1631.38
1019.371	1664.38
1019.586	1657.38
1019.801	1635.38
1020.015	1631.38
1020.23	1594.38
1020.445	1582.38
1020.659	1564.38
1020.874	1554.38
1021.088	1508.38
1021.303	1454.38
1021.517	1443.38
1021.732	1418.38
1021.946	1399.38
1022.16	1422.38
1022.375	1385.38
1022.589	1338.38
1022.803	1320.38
1023.017	1299.38
1023.231	1269.38
1023.445	1261.38
1023.659	1197.38
1023.873	1196.38
1024.087	1156.38
1024.301	1136.38
1024.515	1115.38
1024.729	1121.38
1024.942	1090.38
1025.156	1087.38
1025.37	1071.38
1025.583	1062.38
1025.797	1006.38
1026.01	1004.38
1026.224	967.38
1026.437	943.38
1026.651	926.38
1026.864	891.38
1027.077	905.38
1027.291	869.38
1027.504	851.38
1027.717	804.38
1027.93	791.38
1028.143	789.38
1028.356	746.38
1028.569	726.38
1028.782	674.38
1028.995	-1.62
1029.208	-0.62
1029.421	-1.62
1029.634	-2.62
