Data from QEP037381__519__16-08-04-085.txt Node

Date: Mon Mar 14 16:08:04 EDT 2022
User: dcclab
Spectrometer: QEP03738
Trigger mode: 4
Integration Time (sec): 2.500000E0
Scans to average: 1
Electric dark correction enabled: true
Nonlinearity correction enabled: false
Boxcar width: 0
XAxis mode: Wavelengths
Number of Pixels in Spectrum: 1044
>>>>>Begin Spectral Data<<<<<
783.959	11.25
784.218	2.25
784.476	-3.75
784.734	-2.75
784.992	241.25
785.251	233.25
785.509	224.25
785.767	214.25
786.025	213.25
786.283	207.25
786.541	207.25
786.798	206.25
787.056	202.25
787.314	178.25
787.572	195.25
787.83	194.25
788.087	197.25
788.345	198.25
788.602	179.25
788.86	190.25
789.117	188.25
789.375	182.25
789.632	183.25
789.89	187.25
790.147	191.25
790.404	194.25
790.661	184.25
790.919	209.25
791.176	189.25
791.433	195.25
791.69	203.25
791.947	199.25
792.204	191.25
792.461	211.25
792.718	212.25
792.974	207.25
793.231	210.25
793.488	244.25
793.745	225.25
794.001	238.25
794.258	261.25
794.514	241.25
794.771	270.25
795.027	260.25
795.284	278.25
795.54	289.25
795.797	310.25
796.053	337.25
796.309	354.25
796.565	386.25
796.822	424.25
797.078	453.25
797.334	534.25
797.59	600.25
797.846	766.25
798.102	972.25
798.358	1295.25
798.614	1828.25
798.869	2641.25
799.125	3911.25
799.381	5645.25
799.637	7981.25
799.892	10796.25
800.148	13851.25
800.403	16817.25
800.659	19467.25
800.914	21419.25
801.17	22711.25
801.425	23687.25
801.68	24417.25
801.936	25034.25
802.191	25583.25
802.446	26092.25
802.701	26679.25
802.957	27258.25
803.212	27807.25
803.467	28382.25
803.722	28998.25
803.977	29425.25
804.232	30113.25
804.486	30731.25
804.741	31184.25
804.996	31903.25
805.251	32550.25
805.505	32928.25
805.76	33582.25
806.015	34178.25
806.269	34597.25
806.524	35079.25
806.778	35451.25
807.033	35814.25
807.287	36235.25
807.541	36669.25
807.796	37349.25
808.05	37573.25
808.304	38029.25
808.558	38365.25
808.812	38433.25
809.066	38792.25
809.32	38993.25
809.574	39349.25
809.828	39654.25
810.082	39933.25
810.336	40341.25
810.59	40661.25
810.844	41058.25
811.097	41690.25
811.351	42428.25
811.605	42949.25
811.858	43720.25
812.112	44446.25
812.365	45095.25
812.619	45820.25
812.872	46498.25
813.126	47198.25
813.379	47789.25
813.632	48413.25
813.885	49086.25
814.139	49919.25
814.392	50582.25
814.645	51348.25
814.898	52256.25
815.151	53372.25
815.404	54278.25
815.657	55256.25
815.91	56101.25
816.163	56782.25
816.416	57561.25
816.668	57861.25
816.921	57979.25
817.174	58484.25
817.426	58349.25
817.679	58596.25
817.931	58500.25
818.184	58578.25
818.436	58534.25
818.689	58566.25
818.941	58899.25
819.194	58910.25
819.446	59211.25
819.698	59471.25
819.95	59829.25
820.202	60036.25
820.455	60143.25
820.707	60307.25
820.959	60532.25
821.211	60463.25
821.462	60576.25
821.714	60474.25
821.966	60088.25
822.218	59805.25
822.47	59520.25
822.722	59307.25
822.973	59134.25
823.225	59061.25
823.476	59081.25
823.728	58805.25
823.979	58997.25
824.231	59076.25
824.482	59347.25
824.734	59292.25
824.985	59238.25
825.236	59027.25
825.487	58965.25
825.739	58783.25
825.99	58874.25
826.241	58501.25
826.492	58347.25
826.743	57808.25
826.994	57889.25
827.245	57575.25
827.496	57587.25
827.747	57473.25
827.997	57361.25
828.248	57478.25
828.499	57416.25
828.75	57581.25
829	57584.25
829.251	57552.25
829.501	57295.25
829.752	57279.25
830.002	56980.25
830.253	56583.25
830.503	56214.25
830.753	55933.25
831.004	55575.25
831.254	55330.25
831.504	55213.25
831.754	55232.25
832.004	55253.25
832.254	55136.25
832.504	55198.25
832.754	55447.25
833.004	55317.25
833.254	55270.25
833.504	55149.25
833.754	55062.25
834.003	54758.25
834.253	54782.25
834.503	54292.25
834.752	53951.25
835.002	53695.25
835.252	53570.25
835.501	53352.25
835.75	53234.25
836	53177.25
836.249	53171.25
836.499	53140.25
836.748	52970.25
836.997	52994.25
837.246	53156.25
837.495	53502.25
837.744	54391.25
837.993	54792.25
838.242	55242.25
838.491	55283.25
838.74	54405.25
838.989	53266.25
839.238	52665.25
839.487	51978.25
839.736	51624.25
839.984	51427.25
840.233	51160.25
840.482	50874.25
840.73	50692.25
840.979	50567.25
841.227	50347.25
841.476	50053.25
841.724	50039.25
841.972	49883.25
842.221	49732.25
842.469	49373.25
842.717	49360.25
842.965	49209.25
843.213	49088.25
843.461	48968.25
843.71	48709.25
843.958	48625.25
844.205	48514.25
844.453	48324.25
844.701	48345.25
844.949	48147.25
845.197	48204.25
845.445	48295.25
845.692	48536.25
845.94	48394.25
846.188	48257.25
846.435	48352.25
846.683	48197.25
846.93	47881.25
847.178	47731.25
847.425	47278.25
847.672	47009.25
847.92	46639.25
848.167	46285.25
848.414	45857.25
848.661	45605.25
848.908	45489.25
849.155	45393.25
849.402	45508.25
849.649	45484.25
849.896	45611.25
850.143	46049.25
850.39	46244.25
850.637	46157.25
850.884	46105.25
851.131	45939.25
851.377	45885.25
851.624	45677.25
851.87	45419.25
852.117	45122.25
852.364	45007.25
852.61	44740.25
852.856	44858.25
853.103	44654.25
853.349	44673.25
853.595	44234.25
853.842	43918.25
854.088	43953.25
854.334	43815.25
854.58	43726.25
854.826	43339.25
855.072	43041.25
855.318	42737.25
855.564	42462.25
855.81	41961.25
856.056	41632.25
856.302	41313.25
856.548	41053.25
856.793	40848.25
857.039	40581.25
857.285	40562.25
857.53	40577.25
857.776	40444.25
858.021	40470.25
858.267	40800.25
858.512	40858.25
858.758	41126.25
859.003	41119.25
859.248	41013.25
859.493	40805.25
859.739	40666.25
859.984	40581.25
860.229	40487.25
860.474	40112.25
860.719	39741.25
860.964	39623.25
861.209	39393.25
861.454	39255.25
861.699	38916.25
861.943	38651.25
862.188	38627.25
862.433	38523.25
862.678	38205.25
862.922	38286.25
863.167	38065.25
863.411	38077.25
863.656	38029.25
863.9	37786.25
864.145	37843.25
864.389	37530.25
864.634	37322.25
864.878	37145.25
865.122	37209.25
865.366	37117.25
865.61	37061.25
865.855	36878.25
866.099	36877.25
866.343	36697.25
866.587	36665.25
866.831	36693.25
867.074	36653.25
867.318	36675.25
867.562	36620.25
867.806	36793.25
868.05	36615.25
868.293	36527.25
868.537	36491.25
868.78	36183.25
869.024	35913.25
869.267	35675.25
869.511	35431.25
869.754	35014.25
869.998	34738.25
870.241	34461.25
870.484	34194.25
870.728	34050.25
870.971	33942.25
871.214	33778.25
871.457	33538.25
871.7	33646.25
871.943	33705.25
872.186	33555.25
872.429	33773.25
872.672	33643.25
872.915	33644.25
873.158	33627.25
873.4	33543.25
873.643	33328.25
873.886	33271.25
874.128	33113.25
874.371	33058.25
874.613	33036.25
874.856	32818.25
875.098	32775.25
875.341	32678.25
875.583	32520.25
875.825	32398.25
876.068	32157.25
876.31	31997.25
876.552	31891.25
876.794	31557.25
877.036	31294.25
877.278	31115.25
877.52	30956.25
877.762	30787.25
878.004	30612.25
878.246	30730.25
878.488	30703.25
878.73	30483.25
878.972	30633.25
879.213	30622.25
879.455	30601.25
879.697	30409.25
879.938	30361.25
880.18	30368.25
880.421	30081.25
880.663	30181.25
880.904	30345.25
881.145	30509.25
881.387	30490.25
881.628	30537.25
881.869	30098.25
882.11	29936.25
882.352	29900.25
882.593	29730.25
882.834	29617.25
883.075	29433.25
883.316	29444.25
883.557	29275.25
883.797	29116.25
884.038	28847.25
884.279	28563.25
884.52	28321.25
884.761	27914.25
885.001	27759.25
885.242	27355.25
885.482	27480.25
885.723	27144.25
885.963	27035.25
886.204	26947.25
886.444	26673.25
886.685	26733.25
886.925	26398.25
887.165	26598.25
887.405	26341.25
887.646	26197.25
887.886	26183.25
888.126	26110.25
888.366	26122.25
888.606	25982.25
888.846	26152.25
889.086	26144.25
889.326	26253.25
889.565	26116.25
889.805	26153.25
890.045	26076.25
890.285	25972.25
890.524	25979.25
890.764	25804.25
891.003	25565.25
891.243	25354.25
891.482	25136.25
891.722	24965.25
891.961	24818.25
892.201	24668.25
892.44	24626.25
892.679	24413.25
892.918	24257.25
893.158	24231.25
893.397	24252.25
893.636	24117.25
893.875	23976.25
894.114	23819.25
894.353	23841.25
894.592	23659.25
894.831	23605.25
895.069	23487.25
895.308	23319.25
895.547	23328.25
895.786	23011.25
896.024	23077.25
896.263	23065.25
896.501	22896.25
896.74	22805.25
896.978	22897.25
897.217	22783.25
897.455	22776.25
897.694	22714.25
897.932	22492.25
898.17	22526.25
898.408	22482.25
898.646	22386.25
898.885	22127.25
899.123	22125.25
899.361	21936.25
899.599	21785.25
899.837	21623.25
900.075	21438.25
900.312	21313.25
900.55	21163.25
900.788	20960.25
901.026	20705.25
901.263	20578.25
901.501	20455.25
901.739	20266.25
901.976	20146.25
902.214	20087.25
902.451	20024.25
902.689	20039.25
902.926	19933.25
903.163	19893.25
903.401	19932.25
903.638	19926.25
903.875	19986.25
904.112	19790.25
904.349	19828.25
904.586	19649.25
904.823	19632.25
905.06	19481.25
905.297	19398.25
905.534	19184.25
905.771	19005.25
906.008	19044.25
906.245	18879.25
906.481	18689.25
906.718	18594.25
906.955	18528.25
907.191	18392.25
907.428	18317.25
907.664	18274.25
907.901	18146.25
908.137	18171.25
908.374	18160.25
908.61	18067.25
908.846	17957.25
909.083	17810.25
909.319	17786.25
909.555	17516.25
909.791	17484.25
910.027	17356.25
910.263	17196.25
910.499	17050.25
910.735	16867.25
910.971	16736.25
911.207	16666.25
911.443	16475.25
911.678	16468.25
911.914	16517.25
912.15	16447.25
912.385	16427.25
912.621	16349.25
912.857	16375.25
913.092	16304.25
913.328	16273.25
913.563	16178.25
913.798	16283.25
914.034	16364.25
914.269	16206.25
914.504	16123.25
914.739	15980.25
914.975	15905.25
915.21	15860.25
915.445	15718.25
915.68	15614.25
915.915	15474.25
916.15	15291.25
916.384	15117.25
916.619	14986.25
916.854	14866.25
917.089	14718.25
917.324	14680.25
917.558	14594.25
917.793	14451.25
918.028	14394.25
918.262	14454.25
918.497	14358.25
918.731	14292.25
918.965	14279.25
919.2	14303.25
919.434	14187.25
919.668	14206.25
919.903	14166.25
920.137	14102.25
920.371	14009.25
920.605	13978.25
920.839	13848.25
921.073	13761.25
921.307	13700.25
921.541	13488.25
921.775	13467.25
922.009	13467.25
922.243	13354.25
922.476	13453.25
922.71	13310.25
922.944	13345.25
923.177	13356.25
923.411	13417.25
923.644	13290.25
923.878	13203.25
924.111	13188.25
924.345	13085.25
924.578	13045.25
924.811	12964.25
925.045	12931.25
925.278	12886.25
925.511	12784.25
925.744	12627.25
925.977	12623.25
926.21	12481.25
926.443	12434.25
926.676	12172.25
926.909	12162.25
927.142	12113.25
927.375	11995.25
927.608	11951.25
927.841	11840.25
928.073	11854.25
928.306	11850.25
928.539	11743.25
928.771	11747.25
929.004	11717.25
929.236	11795.25
929.469	11730.25
929.701	11729.25
929.933	11751.25
930.166	11707.25
930.398	11690.25
930.63	11722.25
930.862	11652.25
931.094	11594.25
931.327	11566.25
931.559	11500.25
931.791	11465.25
932.023	11307.25
932.255	11198.25
932.486	11174.25
932.718	11081.25
932.95	11039.25
933.182	10941.25
933.413	10951.25
933.645	10850.25
933.877	10837.25
934.108	10841.25
934.34	10774.25
934.571	10703.25
934.803	10585.25
935.034	10604.25
935.265	10540.25
935.497	10488.25
935.728	10486.25
935.959	10447.25
936.19	10398.25
936.422	10301.25
936.653	10339.25
936.884	10207.25
937.115	10186.25
937.346	10121.25
937.577	10013.25
937.807	9956.25
938.038	9914.25
938.269	9962.25
938.5	9902.25
938.73	9857.25
938.961	9832.25
939.192	9789.25
939.422	9818.25
939.653	9871.25
939.883	9824.25
940.114	9809.25
940.344	9773.25
940.574	9734.25
940.805	9689.25
941.035	9671.25
941.265	9542.25
941.495	9495.25
941.726	9419.25
941.956	9338.25
942.186	9295.25
942.416	9202.25
942.646	9187.25
942.876	9134.25
943.105	8985.25
943.335	8934.25
943.565	8927.25
943.795	8774.25
944.024	8681.25
944.254	8715.25
944.484	8584.25
944.713	8615.25
944.943	8534.25
945.172	8531.25
945.402	8522.25
945.631	8510.25
945.86	8481.25
946.09	8499.25
946.319	8491.25
946.548	8497.25
946.777	8459.25
947.006	8415.25
947.235	8350.25
947.465	8325.25
947.694	8256.25
947.922	8275.25
948.151	8193.25
948.38	8068.25
948.609	8048.25
948.838	8007.25
949.067	7944.25
949.295	7869.25
949.524	7812.25
949.752	7792.25
949.981	7799.25
950.21	7698.25
950.438	7629.25
950.666	7665.25
950.895	7575.25
951.123	7536.25
951.351	7438.25
951.58	7469.25
951.808	7405.25
952.036	7463.25
952.264	7387.25
952.492	7287.25
952.72	7302.25
952.948	7269.25
953.176	7190.25
953.404	7147.25
953.632	7106.25
953.86	7097.25
954.088	6983.25
954.315	6981.25
954.543	6875.25
954.771	6915.25
954.998	6843.25
955.226	6768.25
955.453	6795.25
955.681	6768.25
955.908	6740.25
956.135	6727.25
956.363	6705.25
956.59	6680.25
956.817	6713.25
957.045	6685.25
957.272	6635.25
957.499	6618.25
957.726	6574.25
957.953	6560.25
958.18	6568.25
958.407	6437.25
958.634	6452.25
958.861	6433.25
959.087	6377.25
959.314	6347.25
959.541	6336.25
959.767	6230.25
959.994	6166.25
960.221	6202.25
960.447	6092.25
960.674	6104.25
960.9	5997.25
961.127	6015.25
961.353	5911.25
961.579	5895.25
961.806	5911.25
962.032	5856.25
962.258	5772.25
962.484	5761.25
962.71	5743.25
962.936	5779.25
963.162	5769.25
963.388	5706.25
963.614	5627.25
963.84	5633.25
964.066	5652.25
964.292	5667.25
964.518	5640.25
964.743	5574.25
964.969	5580.25
965.195	5525.25
965.42	5519.25
965.646	5443.25
965.871	5478.25
966.097	5407.25
966.322	5444.25
966.547	5366.25
966.773	5313.25
966.998	5299.25
967.223	5279.25
967.448	5313.25
967.674	5214.25
967.899	5233.25
968.124	5161.25
968.349	5157.25
968.574	5138.25
968.799	5118.25
969.024	5035.25
969.248	5052.25
969.473	4981.25
969.698	4991.25
969.923	4980.25
970.147	4952.25
970.372	4933.25
970.596	4900.25
970.821	4862.25
971.046	4852.25
971.27	4850.25
971.494	4789.25
971.719	4684.25
971.943	4652.25
972.167	4661.25
972.392	4605.25
972.616	4634.25
972.84	4612.25
973.064	4531.25
973.288	4496.25
973.512	4523.25
973.736	4470.25
973.96	4519.25
974.184	4422.25
974.408	4430.25
974.631	4469.25
974.855	4423.25
975.079	4375.25
975.303	4374.25
975.526	4304.25
975.75	4315.25
975.973	4311.25
976.197	4314.25
976.42	4251.25
976.644	4283.25
976.867	4220.25
977.09	4189.25
977.313	4145.25
977.537	4129.25
977.76	4128.25
977.983	4098.25
978.206	4100.25
978.429	4046.25
978.652	4046.25
978.875	3977.25
979.098	3957.25
979.321	3949.25
979.544	3874.25
979.767	3930.25
979.989	3848.25
980.212	3839.25
980.435	3807.25
980.657	3757.25
980.88	3776.25
981.102	3704.25
981.325	3767.25
981.547	3740.25
981.77	3663.25
981.992	3656.25
982.214	3682.25
982.437	3603.25
982.659	3593.25
982.881	3637.25
983.103	3615.25
983.325	3567.25
983.547	3577.25
983.769	3550.25
983.991	3560.25
984.213	3522.25
984.435	3508.25
984.657	3469.25
984.879	3470.25
985.1	3424.25
985.322	3436.25
985.544	3396.25
985.765	3398.25
985.987	3361.25
986.208	3354.25
986.43	3380.25
986.651	3315.25
986.873	3293.25
987.094	3318.25
987.315	3248.25
987.536	3206.25
987.758	3224.25
987.979	3177.25
988.2	3184.25
988.421	3166.25
988.642	3154.25
988.863	3100.25
989.084	3090.25
989.305	3112.25
989.526	3077.25
989.747	3052.25
989.967	2995.25
990.188	2991.25
990.409	2958.25
990.629	2975.25
990.85	2965.25
991.071	2908.25
991.291	2917.25
991.512	2914.25
991.732	2907.25
991.952	2907.25
992.173	2856.25
992.393	2884.25
992.613	2819.25
992.834	2867.25
993.054	2824.25
993.274	2813.25
993.494	2815.25
993.714	2848.25
993.934	2819.25
994.154	2798.25
994.374	2807.25
994.594	2770.25
994.813	2758.25
995.033	2780.25
995.253	2731.25
995.473	2731.25
995.692	2657.25
995.912	2691.25
996.131	2687.25
996.351	2640.25
996.57	2604.25
996.79	2600.25
997.009	2589.25
997.228	2572.25
997.448	2527.25
997.667	2498.25
997.886	2483.25
998.105	2451.25
998.325	2444.25
998.544	2439.25
998.763	2444.25
998.982	2399.25
999.201	2374.25
999.419	2373.25
999.638	2385.25
999.857	2336.25
1000.076	2298.25
1000.295	2305.25
1000.513	2311.25
1000.732	2335.25
1000.95	2285.25
1001.169	2311.25
1001.388	2263.25
1001.606	2296.25
1001.824	2241.25
1002.043	2256.25
1002.261	2234.25
1002.479	2257.25
1002.698	2251.25
1002.916	2261.25
1003.134	2213.25
1003.352	2231.25
1003.57	2181.25
1003.788	2195.25
1004.006	2154.25
1004.224	2192.25
1004.442	2172.25
1004.66	2187.25
1004.878	2177.25
1005.095	2166.25
1005.313	2173.25
1005.531	2130.25
1005.748	2142.25
1005.966	2221.25
1006.184	2146.25
1006.401	2142.25
1006.618	2148.25
1006.836	2120.25
1007.053	2106.25
1007.271	2130.25
1007.488	2140.25
1007.705	2124.25
1007.922	2156.25
1008.139	2094.25
1008.357	2121.25
1008.574	2142.25
1008.791	2191.25
1009.008	2254.25
1009.225	2238.25
1009.441	2307.25
1009.658	2298.25
1009.875	2312.25
1010.092	2317.25
1010.309	2282.25
1010.525	2218.25
1010.742	2215.25
1010.958	2156.25
1011.175	2177.25
1011.391	2156.25
1011.608	2163.25
1011.824	2102.25
1012.041	2094.25
1012.257	2097.25
1012.473	2057.25
1012.689	2040.25
1012.906	2061.25
1013.122	2090.25
1013.338	2034.25
1013.554	2049.25
1013.77	2049.25
1013.986	2057.25
1014.202	2097.25
1014.418	2148.25
1014.634	2222.25
1014.849	2267.25
1015.065	2295.25
1015.281	2298.25
1015.496	2297.25
1015.712	2234.25
1015.928	2220.25
1016.143	2133.25
1016.359	2097.25
1016.574	2019.25
1016.79	2011.25
1017.005	1960.25
1017.22	1898.25
1017.435	1840.25
1017.651	1852.25
1017.866	1752.25
1018.081	1730.25
1018.296	1706.25
1018.511	1712.25
1018.726	1683.25
1018.941	1680.25
1019.156	1661.25
1019.371	1626.25
1019.586	1661.25
1019.801	1653.25
1020.015	1608.25
1020.23	1621.25
1020.445	1597.25
1020.659	1566.25
1020.874	1552.25
1021.088	1530.25
1021.303	1481.25
1021.517	1440.25
1021.732	1408.25
1021.946	1452.25
1022.16	1418.25
1022.375	1377.25
1022.589	1369.25
1022.803	1333.25
1023.017	1306.25
1023.231	1254.25
1023.445	1267.25
1023.659	1235.25
1023.873	1233.25
1024.087	1193.25
1024.301	1138.25
1024.515	1141.25
1024.729	1124.25
1024.942	1082.25
1025.156	1086.25
1025.37	1072.25
1025.583	1049.25
1025.797	1031.25
1026.01	1017.25
1026.224	974.25
1026.437	965.25
1026.651	930.25
1026.864	897.25
1027.077	894.25
1027.291	864.25
1027.504	869.25
1027.717	819.25
1027.93	805.25
1028.143	787.25
1028.356	775.25
1028.569	692.25
1028.782	676.25
1028.995	-2.75
1029.208	0.25
1029.421	-2.75
1029.634	-1.75
