Data from QEP037381__539__16-12-05-289.txt Node

Date: Mon Mar 14 16:12:05 EDT 2022
User: dcclab
Spectrometer: QEP03738
Trigger mode: 4
Integration Time (sec): 1.000000E0
Scans to average: 1
Electric dark correction enabled: true
Nonlinearity correction enabled: false
Boxcar width: 0
XAxis mode: Wavelengths
Number of Pixels in Spectrum: 1044
>>>>>Begin Spectral Data<<<<<
783.959	17.12
784.218	-3.88
784.476	-3.88
784.734	-1.88
784.992	188.12
785.251	184.12
785.509	194.12
785.767	192.12
786.025	197.12
786.283	196.12
786.541	199.12
786.798	205.12
787.056	199.12
787.314	195.12
787.572	204.12
787.83	212.12
788.087	205.12
788.345	216.12
788.602	212.12
788.86	217.12
789.117	222.12
789.375	211.12
789.632	212.12
789.89	228.12
790.147	230.12
790.404	235.12
790.661	245.12
790.919	251.12
791.176	248.12
791.433	251.12
791.69	258.12
791.947	252.12
792.204	253.12
792.461	284.12
792.718	285.12
792.974	296.12
793.231	319.12
793.488	326.12
793.745	345.12
794.001	348.12
794.258	372.12
794.514	367.12
794.771	420.12
795.027	433.12
795.284	472.12
795.54	484.12
795.797	530.12
796.053	579.12
796.309	619.12
796.565	683.12
796.822	772.12
797.078	871.12
797.334	1033.12
797.59	1230.12
797.846	1522.12
798.102	2043.12
798.358	2741.12
798.614	3948.12
798.869	5807.12
799.125	8643.12
799.381	12628.12
799.637	17939.12
799.892	24476.12
800.148	31489.12
800.403	38347.12
800.659	44338.12
800.914	48901.12
801.17	52123.12
801.425	54143.12
801.68	55620.12
801.936	57150.12
802.191	58120.12
802.446	59359.12
802.701	60634.12
802.957	61819.12
803.212	63017.12
803.467	64293.12
803.722	65415.12
803.977	66825.12
804.232	67946.12
804.486	69480.12
804.741	70497.12
804.996	71657.12
805.251	73202.12
805.505	74361.12
805.76	75384.12
806.015	76523.12
806.269	77240.12
806.524	78581.12
806.778	79079.12
807.033	79712.12
807.287	80498.12
807.541	81384.12
807.796	82770.12
808.05	83575.12
808.304	83968.12
808.558	84599.12
808.812	85064.12
809.066	85834.12
809.32	86553.12
809.574	86887.12
809.828	87572.12
810.082	88118.12
810.336	88823.12
810.59	89633.12
810.844	90645.12
811.097	91667.12
811.351	92860.12
811.605	94491.12
811.858	95794.12
812.112	97374.12
812.365	98830.12
812.619	100232.12
812.872	101510.12
813.126	103133.12
813.379	104206.12
813.632	105753.12
813.885	106935.12
814.139	108606.12
814.392	109878.12
814.645	111706.12
814.898	113937.12
815.151	115684.12
815.404	117713.12
815.657	119633.12
815.91	121416.12
816.163	122871.12
816.416	123793.12
816.668	124650.12
816.921	125355.12
817.174	125542.12
817.426	125634.12
817.679	125626.12
817.931	125619.12
818.184	125196.12
818.436	125456.12
818.689	125252.12
818.941	125432.12
819.194	125956.12
819.446	126225.12
819.698	126710.12
819.95	127329.12
820.202	127489.12
820.455	127946.12
820.707	128318.12
820.959	128329.12
821.211	128470.12
821.462	128154.12
821.714	127675.12
821.966	127019.12
822.218	126345.12
822.47	125743.12
822.722	125294.12
822.973	124803.12
823.225	124202.12
823.476	123984.12
823.728	123928.12
823.979	124145.12
824.231	124094.12
824.482	124052.12
824.734	124060.12
824.985	123981.12
825.236	124043.12
825.487	123369.12
825.739	122878.12
825.99	122445.12
826.241	121983.12
826.492	121388.12
826.743	120620.12
826.994	120335.12
827.245	119763.12
827.496	119468.12
827.747	118932.12
827.997	118993.12
828.248	119212.12
828.499	119046.12
828.75	118928.12
829	118915.12
829.251	118806.12
829.501	118786.12
829.752	118180.12
830.002	117392.12
830.253	116833.12
830.503	115867.12
830.753	115260.12
831.004	114621.12
831.254	113835.12
831.504	113521.12
831.754	113241.12
832.004	113087.12
832.254	113071.12
832.504	113148.12
832.754	113085.12
833.004	112791.12
833.254	112579.12
833.504	112150.12
833.754	111749.12
834.003	111397.12
834.253	111021.12
834.503	110261.12
834.752	109610.12
835.002	108911.12
835.252	108323.12
835.501	107685.12
835.75	107465.12
836	107240.12
836.249	106884.12
836.499	106773.12
836.748	106583.12
836.997	106507.12
837.246	106550.12
837.495	106779.12
837.744	106905.12
837.993	106836.12
838.242	106564.12
838.491	106202.12
838.74	105513.12
838.989	104563.12
839.238	103872.12
839.487	103527.12
839.736	102747.12
839.984	102640.12
840.233	101996.12
840.482	101612.12
840.73	101197.12
840.979	100602.12
841.227	100651.12
841.476	100020.12
841.724	99766.12
841.972	99602.12
842.221	99194.12
842.469	98739.12
842.717	98512.12
842.965	98048.12
843.213	97792.12
843.461	97310.12
843.71	96910.12
843.958	96345.12
844.205	96335.12
844.453	96077.12
844.701	95983.12
844.949	95895.12
845.197	95476.12
845.445	95676.12
845.692	96186.12
845.94	95606.12
846.188	95576.12
846.435	95609.12
846.683	94880.12
846.93	94701.12
847.178	94341.12
847.425	93405.12
847.672	92690.12
847.92	91931.12
848.167	91177.12
848.414	90238.12
848.661	89599.12
848.908	89044.12
849.155	88447.12
849.402	88310.12
849.649	88503.12
849.896	88841.12
850.143	88955.12
850.39	89294.12
850.637	89128.12
850.884	89272.12
851.131	89150.12
851.377	89197.12
851.624	88702.12
851.87	88013.12
852.117	87769.12
852.364	87066.12
852.61	86702.12
852.856	86274.12
853.103	85660.12
853.349	85731.12
853.595	85278.12
853.842	84840.12
854.088	84599.12
854.334	84650.12
854.58	84799.12
854.826	84430.12
855.072	83759.12
855.318	83197.12
855.564	82403.12
855.81	81677.12
856.056	81001.12
856.302	80425.12
856.548	79842.12
856.793	79453.12
857.039	79003.12
857.285	78777.12
857.53	78784.12
857.776	78883.12
858.021	79272.12
858.267	79303.12
858.512	79395.12
858.758	79511.12
859.003	79576.12
859.248	79746.12
859.493	79454.12
859.739	79245.12
859.984	78733.12
860.229	78388.12
860.474	77922.12
860.719	77668.12
860.964	76979.12
861.209	76639.12
861.454	75970.12
861.699	75532.12
861.943	75279.12
862.188	75070.12
862.433	74543.12
862.678	74258.12
862.922	74164.12
863.167	73767.12
863.411	73695.12
863.656	73323.12
863.9	73259.12
864.145	73263.12
864.389	72727.12
864.634	72389.12
864.878	72194.12
865.122	71821.12
865.366	71650.12
865.61	71515.12
865.855	71379.12
866.099	71235.12
866.343	70931.12
866.587	70633.12
866.831	70786.12
867.074	70489.12
867.318	70479.12
867.562	70484.12
867.806	70289.12
868.05	70196.12
868.293	70124.12
868.537	69791.12
868.78	69706.12
869.024	69412.12
869.267	68806.12
869.511	68342.12
869.754	67619.12
869.998	67024.12
870.241	66263.12
870.484	66036.12
870.728	65631.12
870.971	65314.12
871.214	65044.12
871.457	64744.12
871.7	64703.12
871.943	64884.12
872.186	64777.12
872.429	64976.12
872.672	64828.12
872.915	64605.12
873.158	64469.12
873.4	64649.12
873.643	64493.12
873.886	64180.12
874.128	63981.12
874.371	63684.12
874.613	63568.12
874.856	63304.12
875.098	62986.12
875.341	62981.12
875.583	62579.12
875.825	62469.12
876.068	62282.12
876.31	61772.12
876.552	61219.12
876.794	60708.12
877.036	60361.12
877.278	59845.12
877.52	59579.12
877.762	59407.12
878.004	59095.12
878.246	59164.12
878.488	58817.12
878.73	58839.12
878.972	58760.12
879.213	58585.12
879.455	58587.12
879.697	58533.12
879.938	58304.12
880.18	57909.12
880.421	57739.12
880.663	57479.12
880.904	57442.12
881.145	57580.12
881.387	57319.12
881.628	57149.12
881.869	57142.12
882.11	56959.12
882.352	57032.12
882.593	56752.12
882.834	56520.12
883.075	56454.12
883.316	56255.12
883.557	56016.12
883.797	55853.12
884.038	55310.12
884.279	54685.12
884.52	54295.12
884.761	53718.12
885.001	53340.12
885.242	52855.12
885.482	52495.12
885.723	52378.12
885.963	52195.12
886.204	51942.12
886.444	51646.12
886.685	51534.12
886.925	51176.12
887.165	50951.12
887.405	50990.12
887.646	50797.12
887.886	50589.12
888.126	50667.12
888.366	50533.12
888.606	50568.12
888.846	50613.12
889.086	50877.12
889.326	50698.12
889.565	50903.12
889.805	50669.12
890.045	50233.12
890.285	50066.12
890.524	50041.12
890.764	49984.12
891.003	49326.12
891.243	48936.12
891.482	48496.12
891.722	48085.12
891.961	47937.12
892.201	47412.12
892.44	47470.12
892.679	47085.12
892.918	46793.12
893.158	46683.12
893.397	46626.12
893.636	46412.12
893.875	46140.12
894.114	45998.12
894.353	45707.12
894.592	45724.12
894.831	45549.12
895.069	45158.12
895.308	45129.12
895.547	44721.12
895.786	44438.12
896.024	44426.12
896.263	44348.12
896.501	44201.12
896.74	44119.12
896.978	44033.12
897.217	43977.12
897.455	43917.12
897.694	43700.12
897.932	43475.12
898.17	43517.12
898.408	43213.12
898.646	42952.12
898.885	42775.12
899.123	42537.12
899.361	42258.12
899.599	41880.12
899.837	41864.12
900.075	41502.12
900.312	41307.12
900.55	40896.12
900.788	40519.12
901.026	40218.12
901.263	39934.12
901.501	39462.12
901.739	39259.12
901.976	39173.12
902.214	38977.12
902.451	38818.12
902.689	38769.12
902.926	38718.12
903.163	38624.12
903.401	38593.12
903.638	38401.12
903.875	38499.12
904.112	38420.12
904.349	38435.12
904.586	38235.12
904.823	38097.12
905.06	37901.12
905.297	37647.12
905.534	37204.12
905.771	37003.12
906.008	36678.12
906.245	36439.12
906.481	36340.12
906.718	36180.12
906.955	35901.12
907.191	35822.12
907.428	35572.12
907.664	35584.12
907.901	35267.12
908.137	35219.12
908.374	35228.12
908.61	34903.12
908.846	34869.12
909.083	34741.12
909.319	34432.12
909.555	34248.12
909.791	33929.12
910.027	33624.12
910.263	33374.12
910.499	33062.12
910.735	32752.12
910.971	32544.12
911.207	32253.12
911.443	32158.12
911.678	31969.12
911.914	32029.12
912.15	31965.12
912.385	31763.12
912.621	31774.12
912.857	31779.12
913.092	31756.12
913.328	31647.12
913.563	31599.12
913.798	31458.12
914.034	31437.12
914.269	31177.12
914.504	31266.12
914.739	30938.12
914.975	30871.12
915.21	30645.12
915.445	30329.12
915.68	30155.12
915.915	29954.12
916.15	29554.12
916.384	29236.12
916.619	28860.12
916.854	28718.12
917.089	28533.12
917.324	28312.12
917.558	28144.12
917.793	28023.12
918.028	27829.12
918.262	27716.12
918.497	27681.12
918.731	27813.12
918.965	27602.12
919.2	27520.12
919.434	27521.12
919.668	27434.12
919.903	27299.12
920.137	27202.12
920.371	27015.12
920.605	26899.12
920.839	26638.12
921.073	26577.12
921.307	26339.12
921.541	26072.12
921.775	25973.12
922.009	25780.12
922.243	25799.12
922.476	25763.12
922.71	25638.12
922.944	25580.12
923.177	25573.12
923.411	25545.12
923.644	25469.12
923.878	25387.12
924.111	25220.12
924.345	25132.12
924.578	24982.12
924.811	24806.12
925.045	24620.12
925.278	24457.12
925.511	24370.12
925.744	24149.12
925.977	24020.12
926.21	23796.12
926.443	23513.12
926.676	23303.12
926.909	23237.12
927.142	22976.12
927.375	22819.12
927.608	22689.12
927.841	22561.12
928.073	22587.12
928.306	22346.12
928.539	22444.12
928.771	22347.12
929.004	22202.12
929.236	22366.12
929.469	22300.12
929.701	22355.12
929.933	22243.12
930.166	22195.12
930.398	22255.12
930.63	22134.12
930.862	22184.12
931.094	21988.12
931.327	21710.12
931.559	21686.12
931.791	21530.12
932.023	21421.12
932.255	21252.12
932.486	21120.12
932.718	20852.12
932.95	20637.12
933.182	20577.12
933.413	20491.12
933.645	20394.12
933.877	20416.12
934.108	20238.12
934.34	20152.12
934.571	20127.12
934.803	19962.12
935.034	19771.12
935.265	19810.12
935.497	19764.12
935.728	19623.12
935.959	19544.12
936.19	19463.12
936.422	19262.12
936.653	19208.12
936.884	19129.12
937.115	18981.12
937.346	18977.12
937.577	18749.12
937.807	18622.12
938.038	18663.12
938.269	18565.12
938.5	18442.12
938.73	18455.12
938.961	18352.12
939.192	18315.12
939.422	18297.12
939.653	18328.12
939.883	18216.12
940.114	18220.12
940.344	18090.12
940.574	18044.12
940.805	17965.12
941.035	17827.12
941.265	17733.12
941.495	17589.12
941.726	17396.12
941.956	17234.12
942.186	17088.12
942.416	17021.12
942.646	16882.12
942.876	16732.12
943.105	16571.12
943.335	16487.12
943.565	16339.12
943.795	16273.12
944.024	16063.12
944.254	16046.12
944.484	16042.12
944.713	15783.12
944.943	15817.12
945.172	15675.12
945.402	15617.12
945.631	15673.12
945.86	15577.12
946.09	15618.12
946.319	15539.12
946.548	15466.12
946.777	15414.12
947.006	15380.12
947.235	15299.12
947.465	15156.12
947.694	15112.12
947.922	14950.12
948.151	14945.12
948.38	14835.12
948.609	14684.12
948.838	14590.12
949.067	14447.12
949.295	14372.12
949.524	14339.12
949.752	14175.12
949.981	14180.12
950.21	14088.12
950.438	13955.12
950.666	13867.12
950.895	13777.12
951.123	13715.12
951.351	13554.12
951.58	13462.12
951.808	13435.12
952.036	13323.12
952.264	13319.12
952.492	13247.12
952.72	13028.12
952.948	12970.12
953.176	12985.12
953.404	12867.12
953.632	12849.12
953.86	12664.12
954.088	12554.12
954.315	12465.12
954.543	12413.12
954.771	12265.12
954.998	12230.12
955.226	12173.12
955.453	12188.12
955.681	12148.12
955.908	12064.12
956.135	12036.12
956.363	12053.12
956.59	11949.12
956.817	11889.12
957.045	11901.12
957.272	11897.12
957.499	11721.12
957.726	11730.12
957.953	11678.12
958.18	11639.12
958.407	11501.12
958.634	11489.12
958.861	11409.12
959.087	11314.12
959.314	11315.12
959.541	11126.12
959.767	11080.12
959.994	11022.12
960.221	10917.12
960.447	10761.12
960.674	10741.12
960.9	10641.12
961.127	10531.12
961.353	10466.12
961.579	10449.12
961.806	10371.12
962.032	10317.12
962.258	10252.12
962.484	10187.12
962.71	10128.12
962.936	10156.12
963.162	10062.12
963.388	10044.12
963.614	10071.12
963.84	10024.12
964.066	10008.12
964.292	9978.12
964.518	9885.12
964.743	9868.12
964.969	9882.12
965.195	9755.12
965.42	9664.12
965.646	9625.12
965.871	9587.12
966.097	9583.12
966.322	9545.12
966.547	9455.12
966.773	9386.12
966.998	9353.12
967.223	9294.12
967.448	9253.12
967.674	9134.12
967.899	9126.12
968.124	9060.12
968.349	9027.12
968.574	8961.12
968.799	8924.12
969.024	8849.12
969.248	8821.12
969.473	8741.12
969.698	8708.12
969.923	8555.12
970.147	8668.12
970.372	8560.12
970.596	8492.12
970.821	8481.12
971.046	8380.12
971.27	8357.12
971.494	8291.12
971.719	8197.12
971.943	8160.12
972.167	8082.12
972.392	8017.12
972.616	7992.12
972.84	7941.12
973.064	7947.12
973.288	7909.12
973.512	7899.12
973.736	7778.12
973.96	7724.12
974.184	7706.12
974.408	7756.12
974.631	7715.12
974.855	7668.12
975.079	7715.12
975.303	7532.12
975.526	7565.12
975.75	7537.12
975.973	7494.12
976.197	7447.12
976.42	7366.12
976.644	7327.12
976.867	7359.12
977.09	7274.12
977.313	7232.12
977.537	7167.12
977.76	7088.12
977.983	7089.12
978.206	6992.12
978.429	6972.12
978.652	6854.12
978.875	6927.12
979.098	6800.12
979.321	6764.12
979.544	6705.12
979.767	6630.12
979.989	6689.12
980.212	6561.12
980.435	6564.12
980.657	6543.12
980.88	6466.12
981.102	6445.12
981.325	6409.12
981.547	6391.12
981.77	6366.12
981.992	6316.12
982.214	6245.12
982.437	6268.12
982.659	6241.12
982.881	6252.12
983.103	6153.12
983.325	6170.12
983.547	6103.12
983.769	6047.12
983.991	6033.12
984.213	6033.12
984.435	5950.12
984.657	5962.12
984.879	5969.12
985.1	5897.12
985.322	5884.12
985.544	5858.12
985.765	5788.12
985.987	5759.12
986.208	5754.12
986.43	5715.12
986.651	5686.12
986.873	5668.12
987.094	5641.12
987.315	5587.12
987.536	5478.12
987.758	5457.12
987.979	5408.12
988.2	5397.12
988.421	5352.12
988.642	5307.12
988.863	5289.12
989.084	5230.12
989.305	5210.12
989.526	5183.12
989.747	5182.12
989.967	5136.12
990.188	5080.12
990.409	5022.12
990.629	5008.12
990.85	4980.12
991.071	4940.12
991.291	4904.12
991.512	4893.12
991.732	4878.12
991.952	4866.12
992.173	4756.12
992.393	4793.12
992.613	4757.12
992.834	4762.12
993.054	4741.12
993.274	4687.12
993.494	4654.12
993.714	4659.12
993.934	4658.12
994.154	4661.12
994.374	4623.12
994.594	4566.12
994.813	4577.12
995.033	4557.12
995.253	4508.12
995.473	4480.12
995.692	4479.12
995.912	4442.12
996.131	4408.12
996.351	4371.12
996.57	4315.12
996.79	4248.12
997.009	4206.12
997.228	4195.12
997.448	4129.12
997.667	4145.12
997.886	4089.12
998.105	4091.12
998.325	4044.12
998.544	4011.12
998.763	3928.12
998.982	3918.12
999.201	3882.12
999.419	3904.12
999.638	3841.12
999.857	3856.12
1000.076	3816.12
1000.295	3807.12
1000.513	3769.12
1000.732	3810.12
1000.95	3782.12
1001.169	3747.12
1001.388	3708.12
1001.606	3701.12
1001.824	3707.12
1002.043	3647.12
1002.261	3617.12
1002.479	3591.12
1002.698	3571.12
1002.916	3594.12
1003.134	3541.12
1003.352	3554.12
1003.57	3515.12
1003.788	3495.12
1004.006	3464.12
1004.224	3457.12
1004.442	3429.12
1004.66	3426.12
1004.878	3406.12
1005.095	3349.12
1005.313	3379.12
1005.531	3294.12
1005.748	3322.12
1005.966	3336.12
1006.184	3271.12
1006.401	3292.12
1006.618	3203.12
1006.836	3223.12
1007.053	3185.12
1007.271	3176.12
1007.488	3170.12
1007.705	3148.12
1007.922	3117.12
1008.139	3090.12
1008.357	3155.12
1008.574	3111.12
1008.791	3116.12
1009.008	3057.12
1009.225	3092.12
1009.441	3076.12
1009.658	3046.12
1009.875	3074.12
1010.092	3057.12
1010.309	3000.12
1010.525	2977.12
1010.742	2961.12
1010.958	2880.12
1011.175	2896.12
1011.391	2925.12
1011.608	2849.12
1011.824	2764.12
1012.041	2770.12
1012.257	2797.12
1012.473	2735.12
1012.689	2717.12
1012.906	2706.12
1013.122	2733.12
1013.338	2705.12
1013.554	2670.12
1013.77	2654.12
1013.986	2662.12
1014.202	2661.12
1014.418	2681.12
1014.634	2695.12
1014.849	2694.12
1015.065	2687.12
1015.281	2694.12
1015.496	2679.12
1015.712	2647.12
1015.928	2660.12
1016.143	2586.12
1016.359	2562.12
1016.574	2539.12
1016.79	2500.12
1017.005	2443.12
1017.22	2454.12
1017.435	2407.12
1017.651	2347.12
1017.866	2342.12
1018.081	2301.12
1018.296	2295.12
1018.511	2215.12
1018.726	2247.12
1018.941	2203.12
1019.156	2177.12
1019.371	2182.12
1019.586	2173.12
1019.801	2158.12
1020.015	2115.12
1020.23	2106.12
1020.445	2053.12
1020.659	2050.12
1020.874	2044.12
1021.088	2036.12
1021.303	2010.12
1021.517	1995.12
1021.732	1964.12
1021.946	1953.12
1022.16	1960.12
1022.375	1909.12
1022.589	1902.12
1022.803	1856.12
1023.017	1840.12
1023.231	1781.12
1023.445	1783.12
1023.659	1731.12
1023.873	1713.12
1024.087	1700.12
1024.301	1621.12
1024.515	1626.12
1024.729	1625.12
1024.942	1541.12
1025.156	1550.12
1025.37	1505.12
1025.583	1484.12
1025.797	1452.12
1026.01	1426.12
1026.224	1403.12
1026.437	1347.12
1026.651	1327.12
1026.864	1281.12
1027.077	1271.12
1027.291	1240.12
1027.504	1212.12
1027.717	1161.12
1027.93	1131.12
1028.143	1113.12
1028.356	1048.12
1028.569	984.12
1028.782	956.12
1028.995	-3.88
1029.208	-1.88
1029.421	1.12
1029.634	-2.88
