Data from QEP037381__553__16-12-19-288.txt Node

Date: Mon Mar 14 16:12:19 EDT 2022
User: dcclab
Spectrometer: QEP03738
Trigger mode: 4
Integration Time (sec): 1.000000E0
Scans to average: 1
Electric dark correction enabled: true
Nonlinearity correction enabled: false
Boxcar width: 0
XAxis mode: Wavelengths
Number of Pixels in Spectrum: 1044
>>>>>Begin Spectral Data<<<<<
783.959	11.62
784.218	-1.38
784.476	-2.38
784.734	-4.38
784.992	190.62
785.251	192.62
785.509	191.62
785.767	192.62
786.025	182.62
786.283	198.62
786.541	197.62
786.798	206.62
787.056	199.62
787.314	193.62
787.572	195.62
787.83	212.62
788.087	195.62
788.345	195.62
788.602	208.62
788.86	211.62
789.117	218.62
789.375	213.62
789.632	222.62
789.89	219.62
790.147	228.62
790.404	227.62
790.661	245.62
790.919	249.62
791.176	250.62
791.433	259.62
791.69	262.62
791.947	262.62
792.204	262.62
792.461	290.62
792.718	293.62
792.974	291.62
793.231	302.62
793.488	331.62
793.745	327.62
794.001	348.62
794.258	380.62
794.514	388.62
794.771	400.62
795.027	432.62
795.284	454.62
795.54	494.62
795.797	510.62
796.053	569.62
796.309	612.62
796.565	669.62
796.822	780.62
797.078	875.62
797.334	1026.62
797.59	1217.62
797.846	1538.62
798.102	2012.62
798.358	2731.62
798.614	3919.62
798.869	5800.62
799.125	8624.62
799.381	12528.62
799.637	17942.62
799.892	24264.62
800.148	31375.62
800.403	38220.62
800.659	44186.62
800.914	48663.62
801.17	51664.62
801.425	53805.62
801.68	55197.62
801.936	56642.62
802.191	57848.62
802.446	58853.62
802.701	60240.62
802.957	61218.62
803.212	62449.62
803.467	63600.62
803.722	64856.62
803.977	66184.62
804.232	67290.62
804.486	68748.62
804.741	70230.62
804.996	71282.62
805.251	72505.62
805.505	73841.62
805.76	74965.62
806.015	75968.62
806.269	77032.62
806.524	77970.62
806.778	78539.62
807.033	79004.62
807.287	79987.62
807.541	80804.62
807.796	81709.62
808.05	82871.62
808.304	83615.62
808.558	84080.62
808.812	84669.62
809.066	85355.62
809.32	85888.62
809.574	86299.62
809.828	87080.62
810.082	87603.62
810.336	87964.62
810.59	88951.62
810.844	89797.62
811.097	90914.62
811.351	92273.62
811.605	93747.62
811.858	95017.62
812.112	96527.62
812.365	98172.62
812.619	99634.62
812.872	101113.62
813.126	102372.62
813.379	103439.62
813.632	105022.62
813.885	106192.62
814.139	107760.62
814.392	109227.62
814.645	110517.62
814.898	112763.62
815.151	114915.62
815.404	116862.62
815.657	118596.62
815.91	120584.62
816.163	121980.62
816.416	122893.62
816.668	123862.62
816.921	124299.62
817.174	124592.62
817.426	124493.62
817.679	124630.62
817.931	124418.62
818.184	124559.62
818.436	124498.62
818.689	123959.62
818.941	124273.62
819.194	124881.62
819.446	125192.62
819.698	125820.62
819.95	126301.62
820.202	126671.62
820.455	127203.62
820.707	127250.62
820.959	127193.62
821.211	127214.62
821.462	127168.62
821.714	126601.62
821.966	126223.62
822.218	125516.62
822.47	124726.62
822.722	124393.62
822.973	123510.62
823.225	123380.62
823.476	123196.62
823.728	123074.62
823.979	123330.62
824.231	123308.62
824.482	123166.62
824.734	123022.62
824.985	123238.62
825.236	122673.62
825.487	122382.62
825.739	122169.62
825.99	121579.62
826.241	121252.62
826.492	120452.62
826.743	119886.62
826.994	119153.62
827.245	118808.62
827.496	118445.62
827.747	118087.62
827.997	118054.62
828.248	118168.62
828.499	118275.62
828.75	118070.62
829	118080.62
829.251	118120.62
829.501	117606.62
829.752	117071.62
830.002	116522.62
830.253	115811.62
830.503	115080.62
830.753	114449.62
831.004	113604.62
831.254	113213.62
831.504	112879.62
831.754	112565.62
832.004	112101.62
832.254	112162.62
832.504	112215.62
832.754	112414.62
833.004	111820.62
833.254	111329.62
833.504	111292.62
833.754	111015.62
834.003	110848.62
834.253	110329.62
834.503	109657.62
834.752	108775.62
835.002	108029.62
835.252	107422.62
835.501	106770.62
835.75	106473.62
836	106398.62
836.249	106183.62
836.499	106006.62
836.748	105764.62
836.997	105628.62
837.246	105890.62
837.495	105766.62
837.744	106002.62
837.993	105888.62
838.242	105633.62
838.491	105070.62
838.74	104396.62
838.989	103715.62
839.238	103315.62
839.487	102575.62
839.736	102112.62
839.984	101787.62
840.233	101255.62
840.482	100626.62
840.73	100293.62
840.979	99790.62
841.227	99608.62
841.476	99171.62
841.724	98970.62
841.972	98950.62
842.221	98521.62
842.469	97710.62
842.717	97745.62
842.965	97273.62
843.213	97119.62
843.461	96559.62
843.71	96029.62
843.958	95799.62
844.205	95384.62
844.453	95096.62
844.701	95347.62
844.949	95180.62
845.197	94867.62
845.445	94801.62
845.692	95109.62
845.94	95037.62
846.188	94872.62
846.435	94568.62
846.683	94328.62
846.93	93776.62
847.178	93278.62
847.425	92576.62
847.672	91969.62
847.92	91319.62
848.167	90270.62
848.414	89561.62
848.661	88794.62
848.908	88408.62
849.155	88007.62
849.402	87634.62
849.649	87737.62
849.896	87863.62
850.143	88251.62
850.39	88394.62
850.637	88294.62
850.884	88443.62
851.131	88135.62
851.377	88148.62
851.624	87755.62
851.87	87252.62
852.117	86842.62
852.364	86481.62
852.61	85964.62
852.856	85673.62
853.103	85272.62
853.349	84908.62
853.595	84587.62
853.842	84214.62
854.088	84005.62
854.334	83975.62
854.58	84073.62
854.826	83659.62
855.072	83061.62
855.318	82341.62
855.564	81743.62
855.81	81054.62
856.056	80209.62
856.302	79623.62
856.548	79124.62
856.793	78577.62
857.039	78383.62
857.285	78338.62
857.53	78083.62
857.776	78187.62
858.021	78452.62
858.267	78723.62
858.512	79021.62
858.758	78750.62
859.003	78794.62
859.248	78870.62
859.493	78776.62
859.739	78404.62
859.984	78206.62
860.229	77934.62
860.474	77085.62
860.719	76904.62
860.964	76455.62
861.209	75939.62
861.454	75418.62
861.699	74910.62
861.943	74474.62
862.188	74336.62
862.433	73802.62
862.678	73322.62
862.922	73276.62
863.167	73170.62
863.411	73053.62
863.656	72836.62
863.9	72672.62
864.145	72636.62
864.389	72041.62
864.634	71598.62
864.878	71441.62
865.122	71170.62
865.366	71030.62
865.61	70791.62
865.855	70516.62
866.099	70402.62
866.343	70171.62
866.587	70072.62
866.831	69807.62
867.074	69949.62
867.318	69840.62
867.562	69770.62
867.806	69684.62
868.05	69651.62
868.293	69605.62
868.537	69234.62
868.78	69021.62
869.024	68686.62
869.267	68156.62
869.511	67759.62
869.754	67013.62
869.998	66562.62
870.241	65659.62
870.484	65670.62
870.728	65061.62
870.971	64615.62
871.214	64508.62
871.457	64254.62
871.7	64139.62
871.943	64269.62
872.186	64041.62
872.429	64324.62
872.672	64187.62
872.915	64070.62
873.158	63924.62
873.4	63954.62
873.643	63843.62
873.886	63557.62
874.128	63573.62
874.371	63265.62
874.613	63064.62
874.856	62669.62
875.098	62445.62
875.341	62392.62
875.583	62280.62
875.825	62101.62
876.068	61726.62
876.31	61187.62
876.552	60647.62
876.794	60202.62
877.036	59729.62
877.278	59179.62
877.52	59180.62
877.762	58689.62
878.004	58527.62
878.246	58291.62
878.488	58360.62
878.73	58296.62
878.972	58308.62
879.213	58049.62
879.455	58188.62
879.697	58037.62
879.938	57655.62
880.18	57305.62
880.421	57231.62
880.663	56812.62
880.904	56948.62
881.145	56804.62
881.387	56688.62
881.628	56804.62
881.869	56508.62
882.11	56466.62
882.352	56437.62
882.593	56131.62
882.834	56038.62
883.075	55996.62
883.316	55888.62
883.557	55586.62
883.797	55164.62
884.038	54913.62
884.279	54326.62
884.52	53697.62
884.761	53311.62
885.001	52823.62
885.242	52412.62
885.482	52197.62
885.723	51920.62
885.963	51579.62
886.204	51517.62
886.444	51204.62
886.685	51077.62
886.925	50785.62
887.165	50550.62
887.405	50352.62
887.646	50311.62
887.886	50051.62
888.126	49872.62
888.366	50011.62
888.606	50055.62
888.846	50228.62
889.086	50416.62
889.326	50430.62
889.565	50234.62
889.805	50054.62
890.045	49717.62
890.285	49819.62
890.524	49660.62
890.764	49365.62
891.003	49115.62
891.243	48362.62
891.482	48045.62
891.722	47489.62
891.961	47328.62
892.201	47071.62
892.44	46956.62
892.679	46478.62
892.918	46424.62
893.158	46306.62
893.397	46209.62
893.636	45942.62
893.875	45958.62
894.114	45593.62
894.353	45468.62
894.592	45146.62
894.831	44999.62
895.069	44683.62
895.308	44423.62
895.547	44273.62
895.786	43989.62
896.024	43856.62
896.263	43750.62
896.501	43681.62
896.74	43615.62
896.978	43710.62
897.217	43456.62
897.455	43207.62
897.694	43259.62
897.932	43103.62
898.17	42883.62
898.408	42825.62
898.646	42610.62
898.885	42342.62
899.123	42144.62
899.361	41955.62
899.599	41604.62
899.837	41392.62
900.075	41148.62
900.312	40871.62
900.55	40536.62
900.788	40238.62
901.026	39683.62
901.263	39398.62
901.501	39045.62
901.739	38922.62
901.976	38697.62
902.214	38541.62
902.451	38401.62
902.689	38372.62
902.926	38265.62
903.163	38249.62
903.401	38134.62
903.638	38105.62
903.875	38065.62
904.112	38062.62
904.349	38039.62
904.586	37776.62
904.823	37703.62
905.06	37360.62
905.297	37113.62
905.534	36801.62
905.771	36587.62
906.008	36337.62
906.245	36184.62
906.481	36100.62
906.718	35713.62
906.955	35563.62
907.191	35416.62
907.428	35097.62
907.664	35103.62
907.901	35065.62
908.137	34850.62
908.374	34691.62
908.61	34631.62
908.846	34472.62
909.083	34182.62
909.319	34132.62
909.555	33735.62
909.791	33588.62
910.027	33238.62
910.263	32893.62
910.499	32694.62
910.735	32468.62
910.971	32244.62
911.207	32011.62
911.443	31860.62
911.678	31744.62
911.914	31569.62
912.15	31634.62
912.385	31351.62
912.621	31453.62
912.857	31357.62
913.092	31250.62
913.328	31179.62
913.563	31235.62
913.798	31078.62
914.034	31147.62
914.269	30958.62
914.504	30767.62
914.739	30686.62
914.975	30514.62
915.21	30418.62
915.445	30142.62
915.68	29911.62
915.915	29589.62
916.15	29283.62
916.384	28824.62
916.619	28689.62
916.854	28294.62
917.089	28215.62
917.324	28051.62
917.558	27893.62
917.793	27655.62
918.028	27503.62
918.262	27523.62
918.497	27330.62
918.731	27474.62
918.965	27399.62
919.2	27162.62
919.434	27148.62
919.668	27179.62
919.903	26904.62
920.137	26940.62
920.371	26782.62
920.605	26595.62
920.839	26470.62
921.073	26294.62
921.307	25982.62
921.541	25849.62
921.775	25610.62
922.009	25516.62
922.243	25530.62
922.476	25393.62
922.71	25455.62
922.944	25389.62
923.177	25237.62
923.411	25218.62
923.644	25203.62
923.878	25057.62
924.111	24947.62
924.345	24921.62
924.578	24714.62
924.811	24509.62
925.045	24496.62
925.278	24274.62
925.511	24054.62
925.744	23854.62
925.977	23706.62
926.21	23551.62
926.443	23296.62
926.676	23153.62
926.909	22859.62
927.142	22647.62
927.375	22605.62
927.608	22495.62
927.841	22316.62
928.073	22246.62
928.306	22147.62
928.539	22151.62
928.771	22151.62
929.004	22008.62
929.236	21934.62
929.469	22042.62
929.701	21979.62
929.933	21992.62
930.166	22061.62
930.398	22006.62
930.63	21974.62
930.862	21867.62
931.094	21636.62
931.327	21609.62
931.559	21366.62
931.791	21186.62
932.023	21078.62
932.255	21080.62
932.486	20776.62
932.718	20727.62
932.95	20483.62
933.182	20407.62
933.413	20270.62
933.645	20166.62
933.877	19981.62
934.108	20026.62
934.34	19904.62
934.571	19935.62
934.803	19692.62
935.034	19559.62
935.265	19531.62
935.497	19526.62
935.728	19493.62
935.959	19354.62
936.19	19295.62
936.422	19060.62
936.653	19050.62
936.884	18932.62
937.115	18927.62
937.346	18614.62
937.577	18518.62
937.807	18550.62
938.038	18268.62
938.269	18405.62
938.5	18357.62
938.73	18177.62
938.961	18164.62
939.192	18109.62
939.422	18161.62
939.653	18054.62
939.883	17956.62
940.114	18002.62
940.344	17902.62
940.574	17839.62
940.805	17648.62
941.035	17612.62
941.265	17477.62
941.495	17292.62
941.726	17264.62
941.956	17052.62
942.186	16955.62
942.416	16835.62
942.646	16684.62
942.876	16568.62
943.105	16412.62
943.335	16328.62
943.565	16193.62
943.795	16048.62
944.024	15938.62
944.254	15824.62
944.484	15779.62
944.713	15677.62
944.943	15631.62
945.172	15561.62
945.402	15440.62
945.631	15519.62
945.86	15430.62
946.09	15373.62
946.319	15461.62
946.548	15321.62
946.777	15312.62
947.006	15211.62
947.235	15135.62
947.465	15092.62
947.694	14990.62
947.922	14854.62
948.151	14746.62
948.38	14563.62
948.609	14541.62
948.838	14440.62
949.067	14376.62
949.295	14191.62
949.524	14170.62
949.752	14061.62
949.981	13947.62
950.21	13919.62
950.438	13782.62
950.666	13675.62
950.895	13615.62
951.123	13442.62
951.351	13396.62
951.58	13402.62
951.808	13272.62
952.036	13210.62
952.264	13196.62
952.492	13106.62
952.72	12950.62
952.948	12952.62
953.176	12819.62
953.404	12741.62
953.632	12679.62
953.86	12531.62
954.088	12405.62
954.315	12399.62
954.543	12274.62
954.771	12194.62
954.998	12098.62
955.226	12143.62
955.453	12007.62
955.681	11922.62
955.908	11916.62
956.135	11914.62
956.363	11854.62
956.59	11878.62
956.817	11732.62
957.045	11742.62
957.272	11748.62
957.499	11679.62
957.726	11613.62
957.953	11542.62
958.18	11503.62
958.407	11498.62
958.634	11330.62
958.861	11321.62
959.087	11178.62
959.314	11136.62
959.541	11043.62
959.767	10936.62
959.994	10852.62
960.221	10726.62
960.447	10658.62
960.674	10634.62
960.9	10513.62
961.127	10450.62
961.353	10373.62
961.579	10341.62
961.806	10257.62
962.032	10132.62
962.258	10096.62
962.484	10109.62
962.71	9987.62
962.936	10056.62
963.162	10004.62
963.388	10043.62
963.614	9940.62
963.84	9913.62
964.066	9880.62
964.292	9802.62
964.518	9818.62
964.743	9754.62
964.969	9744.62
965.195	9727.62
965.42	9607.62
965.646	9605.62
965.871	9566.62
966.097	9496.62
966.322	9458.62
966.547	9357.62
966.773	9272.62
966.998	9135.62
967.223	9245.62
967.448	9112.62
967.674	9130.62
967.899	8981.62
968.124	8963.62
968.349	8947.62
968.574	8902.62
968.799	8868.62
969.024	8787.62
969.248	8687.62
969.473	8638.62
969.698	8659.62
969.923	8545.62
970.147	8575.62
970.372	8427.62
970.596	8314.62
970.821	8342.62
971.046	8293.62
971.27	8238.62
971.494	8241.62
971.719	8131.62
971.943	8030.62
972.167	7984.62
972.392	7953.62
972.616	7926.62
972.84	7885.62
973.064	7876.62
973.288	7836.62
973.512	7799.62
973.736	7767.62
973.96	7714.62
974.184	7695.62
974.408	7676.62
974.631	7607.62
974.855	7613.62
975.079	7513.62
975.303	7547.62
975.526	7542.62
975.75	7438.62
975.973	7418.62
976.197	7336.62
976.42	7341.62
976.644	7330.62
976.867	7242.62
977.09	7229.62
977.313	7140.62
977.537	7123.62
977.76	7084.62
977.983	6974.62
978.206	6973.62
978.429	6850.62
978.652	6890.62
978.875	6799.62
979.098	6701.62
979.321	6692.62
979.544	6635.62
979.767	6590.62
979.989	6540.62
980.212	6552.62
980.435	6487.62
980.657	6404.62
980.88	6434.62
981.102	6406.62
981.325	6347.62
981.547	6305.62
981.77	6301.62
981.992	6267.62
982.214	6208.62
982.437	6169.62
982.659	6171.62
982.881	6137.62
983.103	6112.62
983.325	6095.62
983.547	6089.62
983.769	6006.62
983.991	5981.62
984.213	5988.62
984.435	5949.62
984.657	5893.62
984.879	5903.62
985.1	5814.62
985.322	5799.62
985.544	5759.62
985.765	5716.62
985.987	5743.62
986.208	5681.62
986.43	5665.62
986.651	5586.62
986.873	5570.62
987.094	5586.62
987.315	5489.62
987.536	5454.62
987.758	5426.62
987.979	5353.62
988.2	5325.62
988.421	5329.62
988.642	5289.62
988.863	5216.62
989.084	5172.62
989.305	5199.62
989.526	5122.62
989.747	5113.62
989.967	5071.62
990.188	5038.62
990.409	4958.62
990.629	4982.62
990.85	4960.62
991.071	4875.62
991.291	4874.62
991.512	4835.62
991.732	4805.62
991.952	4802.62
992.173	4772.62
992.393	4769.62
992.613	4699.62
992.834	4674.62
993.054	4660.62
993.274	4673.62
993.494	4627.62
993.714	4637.62
993.934	4623.62
994.154	4575.62
994.374	4582.62
994.594	4521.62
994.813	4505.62
995.033	4478.62
995.253	4454.62
995.473	4507.62
995.692	4413.62
995.912	4420.62
996.131	4370.62
996.351	4317.62
996.57	4282.62
996.79	4220.62
997.009	4195.62
997.228	4148.62
997.448	4096.62
997.667	4070.62
997.886	4050.62
998.105	4040.62
998.325	4032.62
998.544	3950.62
998.763	3946.62
998.982	3913.62
999.201	3830.62
999.419	3826.62
999.638	3842.62
999.857	3826.62
1000.076	3799.62
1000.295	3802.62
1000.513	3780.62
1000.732	3739.62
1000.95	3676.62
1001.169	3722.62
1001.388	3677.62
1001.606	3680.62
1001.824	3672.62
1002.043	3637.62
1002.261	3578.62
1002.479	3615.62
1002.698	3567.62
1002.916	3545.62
1003.134	3515.62
1003.352	3458.62
1003.57	3515.62
1003.788	3469.62
1004.006	3419.62
1004.224	3418.62
1004.442	3415.62
1004.66	3381.62
1004.878	3375.62
1005.095	3315.62
1005.313	3328.62
1005.531	3331.62
1005.748	3305.62
1005.966	3291.62
1006.184	3249.62
1006.401	3246.62
1006.618	3194.62
1006.836	3167.62
1007.053	3171.62
1007.271	3138.62
1007.488	3113.62
1007.705	3102.62
1007.922	3088.62
1008.139	3127.62
1008.357	3090.62
1008.574	3041.62
1008.791	3075.62
1009.008	3031.62
1009.225	3033.62
1009.441	3060.62
1009.658	3025.62
1009.875	3031.62
1010.092	3023.62
1010.309	2997.62
1010.525	2924.62
1010.742	2911.62
1010.958	2887.62
1011.175	2846.62
1011.391	2845.62
1011.608	2797.62
1011.824	2778.62
1012.041	2771.62
1012.257	2770.62
1012.473	2724.62
1012.689	2716.62
1012.906	2676.62
1013.122	2648.62
1013.338	2637.62
1013.554	2652.62
1013.77	2674.62
1013.986	2636.62
1014.202	2646.62
1014.418	2641.62
1014.634	2672.62
1014.849	2673.62
1015.065	2695.62
1015.281	2647.62
1015.496	2662.62
1015.712	2657.62
1015.928	2600.62
1016.143	2582.62
1016.359	2573.62
1016.574	2477.62
1016.79	2458.62
1017.005	2458.62
1017.22	2405.62
1017.435	2348.62
1017.651	2374.62
1017.866	2310.62
1018.081	2266.62
1018.296	2257.62
1018.511	2253.62
1018.726	2193.62
1018.941	2206.62
1019.156	2133.62
1019.371	2148.62
1019.586	2146.62
1019.801	2124.62
1020.015	2107.62
1020.23	2110.62
1020.445	2069.62
1020.659	2001.62
1020.874	2044.62
1021.088	2024.62
1021.303	1954.62
1021.517	1959.62
1021.732	1948.62
1021.946	1925.62
1022.16	1884.62
1022.375	1904.62
1022.589	1882.62
1022.803	1837.62
1023.017	1827.62
1023.231	1782.62
1023.445	1760.62
1023.659	1731.62
1023.873	1683.62
1024.087	1674.62
1024.301	1623.62
1024.515	1617.62
1024.729	1569.62
1024.942	1549.62
1025.156	1553.62
1025.37	1510.62
1025.583	1468.62
1025.797	1437.62
1026.01	1412.62
1026.224	1397.62
1026.437	1336.62
1026.651	1292.62
1026.864	1259.62
1027.077	1226.62
1027.291	1234.62
1027.504	1193.62
1027.717	1138.62
1027.93	1102.62
1028.143	1085.62
1028.356	1043.62
1028.569	996.62
1028.782	937.62
1028.995	0.62
1029.208	-1.38
1029.421	-2.38
1029.634	-0.38
