Data from QEP037381__540__16-12-06-287.txt Node

Date: Mon Mar 14 16:12:06 EDT 2022
User: dcclab
Spectrometer: QEP03738
Trigger mode: 4
Integration Time (sec): 1.000000E0
Scans to average: 1
Electric dark correction enabled: true
Nonlinearity correction enabled: false
Boxcar width: 0
XAxis mode: Wavelengths
Number of Pixels in Spectrum: 1044
>>>>>Begin Spectral Data<<<<<
783.959	10.75
784.218	-0.25
784.476	-4.25
784.734	-4.25
784.992	189.75
785.251	195.75
785.509	201.75
785.767	191.75
786.025	202.75
786.283	197.75
786.541	200.75
786.798	196.75
787.056	200.75
787.314	195.75
787.572	207.75
787.83	201.75
788.087	204.75
788.345	214.75
788.602	227.75
788.86	222.75
789.117	220.75
789.375	217.75
789.632	226.75
789.89	233.75
790.147	236.75
790.404	224.75
790.661	236.75
790.919	255.75
791.176	254.75
791.433	253.75
791.69	263.75
791.947	276.75
792.204	264.75
792.461	277.75
792.718	297.75
792.974	301.75
793.231	302.75
793.488	322.75
793.745	342.75
794.001	347.75
794.258	377.75
794.514	393.75
794.771	429.75
795.027	434.75
795.284	463.75
795.54	511.75
795.797	537.75
796.053	562.75
796.309	647.75
796.565	688.75
796.822	777.75
797.078	893.75
797.334	1052.75
797.59	1260.75
797.846	1563.75
798.102	2021.75
798.358	2809.75
798.614	3982.75
798.869	5905.75
799.125	8744.75
799.381	12818.75
799.637	18316.75
799.892	24805.75
800.148	31901.75
800.403	38821.75
800.659	44965.75
800.914	49470.75
801.17	52592.75
801.425	54800.75
801.68	56394.75
801.936	57577.75
802.191	59005.75
802.446	60131.75
802.701	61494.75
802.957	62545.75
803.212	63637.75
803.467	65105.75
803.722	66278.75
803.977	67646.75
804.232	68897.75
804.486	70283.75
804.741	71611.75
804.996	72740.75
805.251	74337.75
805.505	75193.75
805.76	76375.75
806.015	77442.75
806.269	78415.75
806.524	79376.75
806.778	79907.75
807.033	80746.75
807.287	81169.75
807.541	82657.75
807.796	83488.75
808.05	84560.75
808.304	85298.75
808.558	85654.75
808.812	86285.75
809.066	86919.75
809.32	87652.75
809.574	88307.75
809.828	88741.75
810.082	89334.75
810.336	89930.75
810.59	90612.75
810.844	91486.75
811.097	92681.75
811.351	94006.75
811.605	95690.75
811.858	96918.75
812.112	98645.75
812.365	99959.75
812.619	101534.75
812.872	103108.75
813.126	104064.75
813.379	105308.75
813.632	106892.75
813.885	108201.75
814.139	109572.75
814.392	111356.75
814.645	112988.75
814.898	114897.75
815.151	117139.75
815.404	119112.75
815.657	120944.75
815.91	122471.75
816.163	124218.75
816.416	125264.75
816.668	126142.75
816.921	126857.75
817.174	127198.75
817.426	127218.75
817.679	126856.75
817.931	126847.75
818.184	126714.75
818.436	126534.75
818.689	126842.75
818.941	126764.75
819.194	127457.75
819.446	127903.75
819.698	128277.75
819.95	128904.75
820.202	128975.75
820.455	129163.75
820.707	129822.75
820.959	129839.75
821.211	129649.75
821.462	129697.75
821.714	129128.75
821.966	128637.75
822.218	127975.75
822.47	127045.75
822.722	126796.75
822.973	126319.75
823.225	125619.75
823.476	125373.75
823.728	125324.75
823.979	125561.75
824.231	125787.75
824.482	125613.75
824.734	125676.75
824.985	125243.75
825.236	125177.75
825.487	124704.75
825.739	124469.75
825.99	123838.75
826.241	123624.75
826.492	122725.75
826.743	122205.75
826.994	121750.75
827.245	121169.75
827.496	120831.75
827.747	120420.75
827.997	120562.75
828.248	120341.75
828.499	120569.75
828.75	120521.75
829	120246.75
829.251	120062.75
829.501	120115.75
829.752	119262.75
830.002	118748.75
830.253	117999.75
830.503	117249.75
830.753	116428.75
831.004	115784.75
831.254	115372.75
831.504	114891.75
831.754	114719.75
832.004	114285.75
832.254	114413.75
832.504	114306.75
832.754	114327.75
833.004	114038.75
833.254	113579.75
833.504	113291.75
833.754	113237.75
834.003	112601.75
834.253	112439.75
834.503	111429.75
834.752	110882.75
835.002	110064.75
835.252	109478.75
835.501	108936.75
835.75	108556.75
836	108458.75
836.249	108143.75
836.499	108154.75
836.748	107845.75
836.997	107852.75
837.246	107868.75
837.495	107793.75
837.744	108023.75
837.993	108075.75
838.242	107673.75
838.491	107255.75
838.74	106504.75
838.989	105712.75
839.238	105329.75
839.487	104517.75
839.736	103949.75
839.984	103713.75
840.233	103056.75
840.482	102561.75
840.73	102175.75
840.979	101847.75
841.227	101516.75
841.476	101077.75
841.724	100769.75
841.972	100717.75
842.221	100301.75
842.469	99614.75
842.717	99296.75
842.965	98920.75
843.213	98874.75
843.461	98194.75
843.71	97808.75
843.958	97488.75
844.205	97085.75
844.453	97236.75
844.701	96991.75
844.949	96786.75
845.197	96724.75
845.445	96622.75
845.692	96795.75
845.94	96708.75
846.188	96455.75
846.435	96356.75
846.683	96054.75
846.93	95750.75
847.178	95021.75
847.425	94229.75
847.672	93626.75
847.92	92931.75
848.167	91836.75
848.414	91087.75
848.661	90272.75
848.908	89780.75
849.155	89442.75
849.402	89239.75
849.649	89193.75
849.896	89604.75
850.143	89831.75
850.39	90093.75
850.637	89979.75
850.884	89969.75
851.131	89932.75
851.377	89511.75
851.624	89650.75
851.87	88841.75
852.117	88559.75
852.364	87917.75
852.61	87617.75
852.856	87266.75
853.103	86646.75
853.349	86631.75
853.595	86150.75
853.842	85591.75
854.088	85239.75
854.334	85515.75
854.58	85341.75
854.826	85257.75
855.072	84678.75
855.318	83883.75
855.564	83310.75
855.81	82449.75
856.056	81734.75
856.302	81028.75
856.548	80616.75
856.793	80194.75
857.039	79775.75
857.285	79494.75
857.53	79827.75
857.776	79779.75
858.021	79915.75
858.267	80232.75
858.512	80171.75
858.758	80263.75
859.003	80250.75
859.248	80431.75
859.493	80208.75
859.739	79813.75
859.984	79550.75
860.229	79290.75
860.474	78576.75
860.719	78311.75
860.964	77662.75
861.209	77326.75
861.454	76878.75
861.699	76415.75
861.943	75997.75
862.188	75679.75
862.433	75306.75
862.678	74819.75
862.922	74704.75
863.167	74714.75
863.411	74321.75
863.656	74300.75
863.9	74049.75
864.145	73892.75
864.389	73392.75
864.634	73062.75
864.878	72880.75
865.122	72409.75
865.366	72239.75
865.61	72361.75
865.855	72005.75
866.099	71649.75
866.343	71484.75
866.587	71373.75
866.831	71368.75
867.074	71341.75
867.318	71218.75
867.562	71045.75
867.806	71162.75
868.05	70922.75
868.293	70749.75
868.537	70450.75
868.78	70338.75
869.024	69970.75
869.267	69308.75
869.511	68896.75
869.754	68435.75
869.998	67643.75
870.241	66911.75
870.484	66514.75
870.728	66142.75
870.971	65717.75
871.214	65499.75
871.457	65371.75
871.7	65218.75
871.943	65416.75
872.186	65424.75
872.429	65399.75
872.672	65308.75
872.915	65219.75
873.158	65100.75
873.4	65047.75
873.643	64997.75
873.886	64656.75
874.128	64555.75
874.371	64336.75
874.613	64037.75
874.856	63680.75
875.098	63651.75
875.341	63528.75
875.583	63322.75
875.825	63096.75
876.068	62927.75
876.31	62407.75
876.552	61703.75
876.794	61323.75
877.036	60683.75
877.278	60278.75
877.52	60159.75
877.762	59839.75
878.004	59637.75
878.246	59495.75
878.488	59791.75
878.73	59387.75
878.972	59339.75
879.213	59160.75
879.455	59020.75
879.697	58917.75
879.938	58568.75
880.18	58430.75
880.421	58029.75
880.663	58054.75
880.904	58159.75
881.145	57751.75
881.387	57891.75
881.628	57774.75
881.869	57547.75
882.11	57441.75
882.352	57392.75
882.593	57187.75
882.834	57024.75
883.075	57019.75
883.316	56741.75
883.557	56488.75
883.797	56125.75
884.038	55807.75
884.279	55327.75
884.52	54814.75
884.761	54263.75
885.001	53796.75
885.242	53366.75
885.482	53147.75
885.723	52657.75
885.963	52539.75
886.204	52430.75
886.444	52184.75
886.685	52008.75
886.925	51685.75
887.165	51478.75
887.405	51387.75
887.646	51325.75
887.886	50911.75
888.126	50968.75
888.366	50900.75
888.606	51037.75
888.846	51183.75
889.086	51199.75
889.326	51058.75
889.565	51253.75
889.805	50911.75
890.045	50868.75
890.285	50663.75
890.524	50775.75
890.764	50418.75
891.003	49998.75
891.243	49282.75
891.482	48970.75
891.722	48595.75
891.961	48242.75
892.201	47930.75
892.44	47662.75
892.679	47509.75
892.918	47126.75
893.158	46958.75
893.397	46954.75
893.636	46777.75
893.875	46698.75
894.114	46521.75
894.353	46136.75
894.592	46138.75
894.831	45780.75
895.069	45485.75
895.308	45351.75
895.547	44915.75
895.786	44868.75
896.024	44651.75
896.263	44467.75
896.501	44592.75
896.74	44464.75
896.978	44475.75
897.217	44396.75
897.455	44037.75
897.694	43988.75
897.932	43988.75
898.17	43767.75
898.408	43535.75
898.646	43362.75
898.885	43203.75
899.123	42969.75
899.361	42727.75
899.599	42390.75
899.837	42172.75
900.075	42001.75
900.312	41596.75
900.55	41225.75
900.788	40851.75
901.026	40436.75
901.263	40053.75
901.501	39842.75
901.739	39618.75
901.976	39265.75
902.214	39270.75
902.451	39069.75
902.689	39149.75
902.926	39007.75
903.163	38930.75
903.401	38726.75
903.638	38767.75
903.875	38893.75
904.112	38733.75
904.349	38649.75
904.586	38687.75
904.823	38409.75
905.06	37965.75
905.297	37839.75
905.534	37499.75
905.771	37351.75
906.008	37171.75
906.245	36850.75
906.481	36644.75
906.718	36505.75
906.955	36256.75
907.191	36097.75
907.428	35858.75
907.664	35557.75
907.901	35640.75
908.137	35644.75
908.374	35409.75
908.61	35290.75
908.846	35181.75
909.083	34891.75
909.319	34786.75
909.555	34502.75
909.791	34145.75
910.027	33889.75
910.263	33561.75
910.499	33404.75
910.735	33030.75
910.971	32794.75
911.207	32645.75
911.443	32433.75
911.678	32368.75
911.914	32160.75
912.15	32229.75
912.385	32112.75
912.621	32028.75
912.857	31949.75
913.092	31937.75
913.328	31889.75
913.563	31722.75
913.798	31744.75
914.034	31664.75
914.269	31536.75
914.504	31412.75
914.739	31297.75
914.975	31101.75
915.21	30923.75
915.445	30682.75
915.68	30445.75
915.915	30165.75
916.15	29807.75
916.384	29508.75
916.619	29140.75
916.854	28855.75
917.089	28712.75
917.324	28555.75
917.558	28321.75
917.793	28153.75
918.028	28048.75
918.262	28119.75
918.497	27906.75
918.731	27971.75
918.965	27814.75
919.2	27725.75
919.434	27734.75
919.668	27629.75
919.903	27537.75
920.137	27477.75
920.371	27222.75
920.605	27016.75
920.839	26831.75
921.073	26666.75
921.307	26527.75
921.541	26341.75
921.775	26142.75
922.009	26178.75
922.243	26015.75
922.476	25876.75
922.71	25938.75
922.944	25828.75
923.177	25666.75
923.411	25711.75
923.644	25721.75
923.878	25532.75
924.111	25461.75
924.345	25355.75
924.578	25267.75
924.811	25093.75
925.045	24935.75
925.278	24723.75
925.511	24573.75
925.744	24358.75
925.977	24104.75
926.21	23925.75
926.443	23752.75
926.676	23545.75
926.909	23401.75
927.142	23219.75
927.375	23102.75
927.608	22820.75
927.841	22718.75
928.073	22615.75
928.306	22598.75
928.539	22387.75
928.771	22544.75
929.004	22461.75
929.236	22367.75
929.469	22483.75
929.701	22522.75
929.933	22388.75
930.166	22382.75
930.398	22447.75
930.63	22314.75
930.862	22283.75
931.094	22103.75
931.327	22028.75
931.559	21728.75
931.791	21577.75
932.023	21498.75
932.255	21364.75
932.486	21305.75
932.718	21080.75
932.95	20937.75
933.182	20773.75
933.413	20698.75
933.645	20510.75
933.877	20454.75
934.108	20411.75
934.34	20277.75
934.571	20221.75
934.803	20121.75
935.034	20019.75
935.265	20054.75
935.497	19827.75
935.728	19733.75
935.959	19664.75
936.19	19639.75
936.422	19517.75
936.653	19327.75
936.884	19324.75
937.115	19229.75
937.346	19143.75
937.577	18862.75
937.807	18849.75
938.038	18661.75
938.269	18706.75
938.5	18573.75
938.73	18549.75
938.961	18541.75
939.192	18537.75
939.422	18364.75
939.653	18470.75
939.883	18413.75
940.114	18359.75
940.344	18271.75
940.574	18159.75
940.805	18075.75
941.035	18010.75
941.265	17750.75
941.495	17724.75
941.726	17492.75
941.956	17398.75
942.186	17270.75
942.416	17230.75
942.646	16983.75
942.876	16863.75
943.105	16758.75
943.335	16571.75
943.565	16551.75
943.795	16401.75
944.024	16242.75
944.254	16161.75
944.484	16100.75
944.713	15944.75
944.943	15888.75
945.172	15779.75
945.402	15746.75
945.631	15690.75
945.86	15758.75
946.09	15726.75
946.319	15610.75
946.548	15673.75
946.777	15555.75
947.006	15460.75
947.235	15417.75
947.465	15338.75
947.694	15275.75
947.922	15122.75
948.151	15038.75
948.38	14876.75
948.609	14711.75
948.838	14714.75
949.067	14675.75
949.295	14467.75
949.524	14412.75
949.752	14314.75
949.981	14189.75
950.21	14195.75
950.438	14058.75
950.666	13941.75
950.895	13881.75
951.123	13790.75
951.351	13695.75
951.58	13546.75
951.808	13535.75
952.036	13605.75
952.264	13388.75
952.492	13392.75
952.72	13237.75
952.948	13153.75
953.176	13095.75
953.404	12912.75
953.632	12794.75
953.86	12774.75
954.088	12604.75
954.315	12457.75
954.543	12475.75
954.771	12393.75
954.998	12313.75
955.226	12228.75
955.453	12222.75
955.681	12185.75
955.908	12071.75
956.135	12144.75
956.363	12088.75
956.59	12064.75
956.817	12021.75
957.045	11952.75
957.272	11937.75
957.499	11903.75
957.726	11778.75
957.953	11722.75
958.18	11716.75
958.407	11636.75
958.634	11540.75
958.861	11459.75
959.087	11466.75
959.314	11325.75
959.541	11281.75
959.767	11131.75
959.994	11116.75
960.221	10990.75
960.447	10966.75
960.674	10794.75
960.9	10758.75
961.127	10646.75
961.353	10594.75
961.579	10466.75
961.806	10449.75
962.032	10393.75
962.258	10303.75
962.484	10270.75
962.71	10270.75
962.936	10206.75
963.162	10238.75
963.388	10114.75
963.614	10088.75
963.84	10151.75
964.066	10066.75
964.292	9954.75
964.518	9983.75
964.743	9884.75
964.969	9931.75
965.195	9825.75
965.42	9785.75
965.646	9762.75
965.871	9635.75
966.097	9679.75
966.322	9562.75
966.547	9543.75
966.773	9420.75
966.998	9377.75
967.223	9314.75
967.448	9282.75
967.674	9222.75
967.899	9134.75
968.124	9119.75
968.349	9064.75
968.574	9015.75
968.799	9019.75
969.024	8871.75
969.248	8827.75
969.473	8840.75
969.698	8735.75
969.923	8724.75
970.147	8673.75
970.372	8631.75
970.596	8573.75
970.821	8478.75
971.046	8439.75
971.27	8404.75
971.494	8345.75
971.719	8283.75
971.943	8178.75
972.167	8164.75
972.392	8114.75
972.616	8018.75
972.84	8017.75
973.064	7983.75
973.288	7996.75
973.512	7931.75
973.736	7893.75
973.96	7846.75
974.184	7808.75
974.408	7813.75
974.631	7756.75
974.855	7710.75
975.079	7694.75
975.303	7616.75
975.526	7631.75
975.75	7576.75
975.973	7527.75
976.197	7486.75
976.42	7450.75
976.644	7418.75
976.867	7393.75
977.09	7270.75
977.313	7233.75
977.537	7185.75
977.76	7155.75
977.983	7088.75
978.206	7064.75
978.429	6923.75
978.652	6942.75
978.875	6955.75
979.098	6819.75
979.321	6864.75
979.544	6754.75
979.767	6726.75
979.989	6609.75
980.212	6639.75
980.435	6577.75
980.657	6519.75
980.88	6497.75
981.102	6471.75
981.325	6496.75
981.547	6405.75
981.77	6351.75
981.992	6317.75
982.214	6287.75
982.437	6307.75
982.659	6254.75
982.881	6280.75
983.103	6214.75
983.325	6206.75
983.547	6163.75
983.769	6141.75
983.991	6138.75
984.213	6037.75
984.435	6057.75
984.657	5989.75
984.879	5985.75
985.1	5958.75
985.322	5895.75
985.544	5847.75
985.765	5859.75
985.987	5782.75
986.208	5781.75
986.43	5808.75
986.651	5694.75
986.873	5699.75
987.094	5653.75
987.315	5659.75
987.536	5601.75
987.758	5458.75
987.979	5486.75
988.2	5453.75
988.421	5418.75
988.642	5338.75
988.863	5288.75
989.084	5264.75
989.305	5246.75
989.526	5187.75
989.747	5212.75
989.967	5177.75
990.188	5061.75
990.409	5049.75
990.629	5008.75
990.85	4982.75
991.071	4927.75
991.291	4929.75
991.512	4918.75
991.732	4864.75
991.952	4849.75
992.173	4883.75
992.393	4813.75
992.613	4798.75
992.834	4825.75
993.054	4748.75
993.274	4702.75
993.494	4711.75
993.714	4712.75
993.934	4651.75
994.154	4678.75
994.374	4676.75
994.594	4584.75
994.813	4626.75
995.033	4557.75
995.253	4514.75
995.473	4498.75
995.692	4511.75
995.912	4433.75
996.131	4374.75
996.351	4357.75
996.57	4313.75
996.79	4346.75
997.009	4269.75
997.228	4182.75
997.448	4215.75
997.667	4185.75
997.886	4098.75
998.105	4073.75
998.325	4016.75
998.544	4014.75
998.763	3945.75
998.982	3934.75
999.201	3938.75
999.419	3870.75
999.638	3870.75
999.857	3896.75
1000.076	3852.75
1000.295	3862.75
1000.513	3798.75
1000.732	3820.75
1000.95	3766.75
1001.169	3770.75
1001.388	3708.75
1001.606	3728.75
1001.824	3717.75
1002.043	3703.75
1002.261	3617.75
1002.479	3639.75
1002.698	3620.75
1002.916	3574.75
1003.134	3554.75
1003.352	3555.75
1003.57	3526.75
1003.788	3536.75
1004.006	3494.75
1004.224	3447.75
1004.442	3461.75
1004.66	3438.75
1004.878	3411.75
1005.095	3404.75
1005.313	3386.75
1005.531	3346.75
1005.748	3353.75
1005.966	3359.75
1006.184	3285.75
1006.401	3280.75
1006.618	3272.75
1006.836	3249.75
1007.053	3214.75
1007.271	3188.75
1007.488	3192.75
1007.705	3170.75
1007.922	3193.75
1008.139	3131.75
1008.357	3116.75
1008.574	3126.75
1008.791	3085.75
1009.008	3085.75
1009.225	3141.75
1009.441	3083.75
1009.658	3082.75
1009.875	3085.75
1010.092	3042.75
1010.309	3021.75
1010.525	2970.75
1010.742	2940.75
1010.958	2894.75
1011.175	2897.75
1011.391	2847.75
1011.608	2846.75
1011.824	2852.75
1012.041	2820.75
1012.257	2797.75
1012.473	2753.75
1012.689	2731.75
1012.906	2773.75
1013.122	2691.75
1013.338	2706.75
1013.554	2681.75
1013.77	2678.75
1013.986	2685.75
1014.202	2710.75
1014.418	2712.75
1014.634	2688.75
1014.849	2686.75
1015.065	2726.75
1015.281	2735.75
1015.496	2693.75
1015.712	2688.75
1015.928	2652.75
1016.143	2611.75
1016.359	2578.75
1016.574	2595.75
1016.79	2546.75
1017.005	2513.75
1017.22	2454.75
1017.435	2407.75
1017.651	2387.75
1017.866	2312.75
1018.081	2334.75
1018.296	2294.75
1018.511	2243.75
1018.726	2244.75
1018.941	2249.75
1019.156	2174.75
1019.371	2201.75
1019.586	2204.75
1019.801	2179.75
1020.015	2111.75
1020.23	2126.75
1020.445	2098.75
1020.659	2079.75
1020.874	2060.75
1021.088	2019.75
1021.303	2002.75
1021.517	1994.75
1021.732	2031.75
1021.946	1955.75
1022.16	1976.75
1022.375	1928.75
1022.589	1900.75
1022.803	1895.75
1023.017	1846.75
1023.231	1800.75
1023.445	1785.75
1023.659	1737.75
1023.873	1737.75
1024.087	1679.75
1024.301	1664.75
1024.515	1628.75
1024.729	1615.75
1024.942	1583.75
1025.156	1567.75
1025.37	1533.75
1025.583	1496.75
1025.797	1485.75
1026.01	1440.75
1026.224	1418.75
1026.437	1387.75
1026.651	1347.75
1026.864	1280.75
1027.077	1279.75
1027.291	1229.75
1027.504	1197.75
1027.717	1191.75
1027.93	1166.75
1028.143	1112.75
1028.356	1061.75
1028.569	1005.75
1028.782	943.75
1028.995	-0.25
1029.208	-0.25
1029.421	-1.25
1029.634	-0.25
