Data from QEP037381__609__16-13-25-287.txt Node

Date: Mon Mar 14 16:13:25 EDT 2022
User: dcclab
Spectrometer: QEP03738
Trigger mode: 4
Integration Time (sec): 1.000000E0
Scans to average: 1
Electric dark correction enabled: true
Nonlinearity correction enabled: false
Boxcar width: 0
XAxis mode: Wavelengths
Number of Pixels in Spectrum: 1044
>>>>>Begin Spectral Data<<<<<
783.959	13
784.218	-1
784.476	-2
784.734	-5
784.992	189
785.251	205
785.509	202
785.767	191
786.025	191
786.283	204
786.541	198
786.798	215
787.056	206
787.314	196
787.572	204
787.83	208
788.087	211
788.345	215
788.602	227
788.86	220
789.117	228
789.375	219
789.632	223
789.89	226
790.147	232
790.404	234
790.661	260
790.919	261
791.176	266
791.433	253
791.69	269
791.947	274
792.204	282
792.461	284
792.718	299
792.974	302
793.231	309
793.488	338
793.745	358
794.001	363
794.258	396
794.514	389
794.771	420
795.027	439
795.284	479
795.54	499
795.797	544
796.053	597
796.309	641
796.565	706
796.822	782
797.078	903
797.334	1075
797.59	1269
797.846	1610
798.102	2089
798.358	2871
798.614	4061
798.869	5982
799.125	8996
799.381	13099
799.637	18635
799.892	25318
800.148	32607
800.403	39797
800.659	46069
800.914	50710
801.17	53964
801.425	56109
801.68	57683
801.936	58908
802.191	60188
802.446	61619
802.701	62745
802.957	63995
803.212	65264
803.467	66578
803.722	67909
803.977	69156
804.232	70277
804.486	71887
804.741	73012
804.996	74597
805.251	75657
805.505	77115
805.76	78241
806.015	79324
806.269	80131
806.524	81336
806.778	81883
807.033	82310
807.287	83196
807.541	84326
807.796	85676
808.05	86535
808.304	87426
808.558	87729
808.812	88218
809.066	88975
809.32	89481
809.574	90218
809.828	90742
810.082	91141
810.336	92176
810.59	92861
810.844	93794
811.097	94887
811.351	96052
811.605	97836
811.858	99090
812.112	101105
812.365	102424
812.619	104006
812.872	105381
813.126	106667
813.379	108228
813.632	109499
813.885	110603
814.139	112566
814.392	113698
814.645	115536
814.898	117519
815.151	119674
815.404	121630
815.657	123778
815.91	125392
816.163	126936
816.416	128242
816.668	128974
816.921	129807
817.174	129686
817.426	129962
817.679	130023
817.931	129686
818.184	129598
818.436	129372
818.689	129418
818.941	129625
819.194	130299
819.446	130814
819.698	131132
819.95	131672
820.202	131907
820.455	132146
820.707	132461
820.959	132409
821.211	132600
821.462	132527
821.714	132200
821.966	131291
822.218	130714
822.47	129928
822.722	129518
822.973	128919
823.225	128356
823.476	128308
823.728	128215
823.979	128277
824.231	128202
824.482	128111
824.734	128172
824.985	127966
825.236	127806
825.487	127371
825.739	127083
825.99	126694
826.241	126152
826.492	125433
826.743	124762
826.994	124323
827.245	123659
827.496	123234
827.747	122845
827.997	122917
828.248	123077
828.499	123139
828.75	123091
829	122815
829.251	122924
829.501	122440
829.752	121886
830.002	121340
830.253	120300
830.503	119899
830.753	118944
831.004	118218
831.254	117619
831.504	117242
831.754	117084
832.004	116784
832.254	116658
832.504	116791
832.754	116972
833.004	116224
833.254	116093
833.504	115675
833.754	115631
834.003	115251
834.253	114641
834.503	114009
834.752	113092
835.002	112432
835.252	111678
835.501	111184
835.75	110842
836	110609
836.249	110599
836.499	110152
836.748	110117
836.997	110017
837.246	110011
837.495	110130
837.744	110145
837.993	110105
838.242	109692
838.491	109549
838.74	108632
838.989	107946
839.238	107127
839.487	106935
839.736	106273
839.984	105873
840.233	105327
840.482	104731
840.73	104251
840.979	104047
841.227	103673
841.476	103077
841.724	103124
841.972	102594
842.221	102358
842.469	101800
842.717	101480
842.965	101095
843.213	100627
843.461	100287
843.71	99951
843.958	99584
844.205	99153
844.453	99242
844.701	99054
844.949	98675
845.197	98472
845.445	98628
845.692	98886
845.94	98500
846.188	98461
846.435	98492
846.683	97911
846.93	97448
847.178	97031
847.425	96209
847.672	95654
847.92	94858
848.167	93824
848.414	92912
848.661	92251
848.908	91739
849.155	91294
849.402	91097
849.649	90929
849.896	91241
850.143	91588
850.39	91944
850.637	91883
850.884	91748
851.131	91815
851.377	91491
851.624	91178
851.87	90753
852.117	90224
852.364	89534
852.61	89336
852.856	89159
853.103	88412
853.349	88127
853.595	87669
853.842	87440
854.088	87110
854.334	87393
854.58	87344
854.826	87006
855.072	86285
855.318	85687
855.564	84857
855.81	84035
856.056	83372
856.302	82706
856.548	82206
856.793	81653
857.039	81501
857.285	81099
857.53	80867
857.776	81368
858.021	81647
858.267	81499
858.512	81825
858.758	82048
859.003	81974
859.248	81896
859.493	81807
859.739	81447
859.984	81178
860.229	80732
860.474	80119
860.719	79795
860.964	79266
861.209	78780
861.454	78255
861.699	77648
861.943	77393
862.188	77189
862.433	76748
862.678	76443
862.922	76324
863.167	76151
863.411	75873
863.656	75679
863.9	75629
864.145	75378
864.389	74819
864.634	74436
864.878	74273
865.122	73945
865.366	73735
865.61	73638
865.855	73319
866.099	73160
866.343	72878
866.587	72697
866.831	72615
867.074	72530
867.318	72641
867.562	72429
867.806	72377
868.05	72158
868.293	72102
868.537	71895
868.78	71420
869.024	71252
869.267	70690
869.511	70115
869.754	69523
869.998	68893
870.241	68446
870.484	67817
870.728	67461
870.971	67206
871.214	66576
871.457	66699
871.7	66484
871.943	66410
872.186	66696
872.429	66789
872.672	66783
872.915	66570
873.158	66369
873.4	66397
873.643	66129
873.886	66065
874.128	65598
874.371	65586
874.613	65375
874.856	65168
875.098	64939
875.341	64608
875.583	64587
875.825	64316
876.068	64090
876.31	63519
876.552	62943
876.794	62367
877.036	61866
877.278	61464
877.52	61294
877.762	61029
878.004	60930
878.246	60652
878.488	60533
878.73	60457
878.972	60302
879.213	60281
879.455	60337
879.697	60022
879.938	59859
880.18	59526
880.421	59406
880.663	59151
880.904	58948
881.145	58854
881.387	58882
881.628	58742
881.869	58590
882.11	58568
882.352	58362
882.593	58232
882.834	58354
883.075	58078
883.316	57878
883.557	57667
883.797	57313
884.038	56902
884.279	56136
884.52	55744
884.761	55119
885.001	54830
885.242	54448
885.482	53943
885.723	53848
885.963	53573
886.204	53395
886.444	53236
886.685	53054
886.925	52662
887.165	52440
887.405	52174
887.646	52087
887.886	52084
888.126	51853
888.366	52019
888.606	51985
888.846	52056
889.086	52123
889.326	52151
889.565	52213
889.805	51944
890.045	51814
890.285	51765
890.524	51516
890.764	51438
891.003	50928
891.243	50190
891.482	49935
891.722	49550
891.961	49186
892.201	49025
892.44	48578
892.679	48344
892.918	48135
893.158	47980
893.397	47766
893.636	47836
893.875	47575
894.114	47263
894.353	47176
894.592	46973
894.831	46809
895.069	46291
895.308	46012
895.547	45859
895.786	45619
896.024	45669
896.263	45456
896.501	45487
896.74	45353
896.978	45161
897.217	45143
897.455	44932
897.694	44828
897.932	44841
898.17	44549
898.408	44353
898.646	44218
898.885	43992
899.123	43715
899.361	43442
899.599	43227
899.837	43042
900.075	42666
900.312	42382
900.55	41981
900.788	41648
901.026	41271
901.263	40908
901.501	40664
901.739	40402
901.976	40242
902.214	39976
902.451	39846
902.689	39825
902.926	39565
903.163	39689
903.401	39639
903.638	39533
903.875	39535
904.112	39623
904.349	39355
904.586	39186
904.823	39054
905.06	38824
905.297	38603
905.534	38105
905.771	37974
906.008	37758
906.245	37535
906.481	37393
906.718	37088
906.955	36811
907.191	36834
907.428	36402
907.664	36464
907.901	36370
908.137	36230
908.374	35997
908.61	35831
908.846	35692
909.083	35459
909.319	35405
909.555	35000
909.791	34871
910.027	34568
910.263	34238
910.499	33980
910.735	33622
910.971	33335
911.207	33304
911.443	33133
911.678	32905
911.914	32791
912.15	32594
912.385	32671
912.621	32575
912.857	32563
913.092	32436
913.328	32455
913.563	32331
913.798	32347
914.034	32206
914.269	32226
914.504	32108
914.739	31946
914.975	31693
915.21	31543
915.445	31209
915.68	31027
915.915	30820
916.15	30406
916.384	30060
916.619	29495
916.854	29311
917.089	29264
917.324	29062
917.558	28926
917.793	28815
918.028	28557
918.262	28447
918.497	28493
918.731	28493
918.965	28266
919.2	28310
919.434	28280
919.668	28195
919.903	28011
920.137	27860
920.371	27862
920.605	27525
920.839	27353
921.073	27214
921.307	27048
921.541	26820
921.775	26642
922.009	26527
922.243	26508
922.476	26550
922.71	26443
922.944	26353
923.177	26179
923.411	26084
923.644	25966
923.878	25940
924.111	25905
924.345	25807
924.578	25663
924.811	25357
925.045	25384
925.278	25211
925.511	24955
925.744	24849
925.977	24516
926.21	24420
926.443	24137
926.676	23920
926.909	23788
927.142	23676
927.375	23498
927.608	23262
927.841	23087
928.073	23076
928.306	22943
928.539	22838
928.771	23017
929.004	22866
929.236	22819
929.469	22823
929.701	22867
929.933	22803
930.166	22714
930.398	22757
930.63	22801
930.862	22683
931.094	22496
931.327	22413
931.559	22188
931.791	22058
932.023	22008
932.255	21658
932.486	21590
932.718	21346
932.95	21339
933.182	21060
933.413	21063
933.645	20876
933.877	20803
934.108	20791
934.34	20566
934.571	20554
934.803	20517
935.034	20333
935.265	20287
935.497	20355
935.728	20188
935.959	20062
936.19	19934
936.422	19836
936.653	19734
936.884	19556
937.115	19556
937.346	19370
937.577	19232
937.807	19029
938.038	19025
938.269	19014
938.5	19013
938.73	18937
938.961	18760
939.192	18744
939.422	18799
939.653	18716
939.883	18682
940.114	18634
940.344	18568
940.574	18479
940.805	18334
941.035	18286
941.265	18128
941.495	17836
941.726	17780
941.956	17708
942.186	17581
942.416	17392
942.646	17356
942.876	17173
943.105	17005
943.335	16858
943.565	16789
943.795	16637
944.024	16504
944.254	16396
944.484	16298
944.713	16315
944.943	16152
945.172	16007
945.402	15969
945.631	16060
945.86	15909
946.09	15874
946.319	15879
946.548	15915
946.777	15784
947.006	15722
947.235	15639
947.465	15551
947.694	15505
947.922	15369
948.151	15230
948.38	15215
948.609	15007
948.838	14978
949.067	14860
949.295	14743
949.524	14589
949.752	14526
949.981	14489
950.21	14380
950.438	14253
950.666	14190
950.895	14059
951.123	14003
951.351	13804
951.58	13793
951.808	13798
952.036	13698
952.264	13604
952.492	13552
952.72	13475
952.948	13412
953.176	13274
953.404	13180
953.632	13001
953.86	12940
954.088	12846
954.315	12729
954.543	12747
954.771	12590
954.998	12578
955.226	12384
955.453	12404
955.681	12363
955.908	12289
956.135	12265
956.363	12219
956.59	12243
956.817	12177
957.045	12104
957.272	12074
957.499	12040
957.726	11966
957.953	11947
958.18	11902
958.407	11772
958.634	11739
958.861	11697
959.087	11534
959.314	11454
959.541	11475
959.767	11325
959.994	11185
960.221	11191
960.447	11030
960.674	10987
960.9	10845
961.127	10799
961.353	10757
961.579	10695
961.806	10538
962.032	10516
962.258	10450
962.484	10404
962.71	10409
962.936	10348
963.162	10298
963.388	10287
963.614	10264
963.84	10275
964.066	10151
964.292	10132
964.518	10201
964.743	10051
964.969	10022
965.195	9987
965.42	9925
965.646	9911
965.871	9848
966.097	9778
966.322	9768
966.547	9683
966.773	9616
966.998	9504
967.223	9458
967.448	9516
967.674	9336
967.899	9239
968.124	9279
968.349	9239
968.574	9236
968.799	9096
969.024	9018
969.248	8963
969.473	8980
969.698	8926
969.923	8859
970.147	8838
970.372	8671
970.596	8649
970.821	8639
971.046	8523
971.27	8545
971.494	8461
971.719	8433
971.943	8297
972.167	8273
972.392	8282
972.616	8170
972.84	8135
973.064	8084
973.288	8068
973.512	7986
973.736	8003
973.96	7953
974.184	7958
974.408	7867
974.631	7844
974.855	7848
975.079	7811
975.303	7860
975.526	7764
975.75	7747
975.973	7640
976.197	7630
976.42	7555
976.644	7525
976.867	7494
977.09	7407
977.313	7387
977.537	7301
977.76	7245
977.983	7212
978.206	7186
978.429	7089
978.652	7068
978.875	7049
979.098	6988
979.321	6922
979.544	6901
979.767	6826
979.989	6787
980.212	6759
980.435	6680
980.657	6572
980.88	6637
981.102	6652
981.325	6515
981.547	6471
981.77	6500
981.992	6460
982.214	6430
982.437	6384
982.659	6357
982.881	6373
983.103	6349
983.325	6320
983.547	6266
983.769	6192
983.991	6209
984.213	6174
984.435	6116
984.657	6104
984.879	6023
985.1	6028
985.322	6017
985.544	5930
985.765	5930
985.987	5905
986.208	5890
986.43	5798
986.651	5763
986.873	5792
987.094	5758
987.315	5693
987.536	5622
987.758	5590
987.979	5615
988.2	5510
988.421	5500
988.642	5515
988.863	5394
989.084	5401
989.305	5367
989.526	5282
989.747	5244
989.967	5236
990.188	5207
990.409	5157
990.629	5119
990.85	5093
991.071	5043
991.291	4998
991.512	4954
991.732	4927
991.952	4952
992.173	4853
992.393	4933
992.613	4816
992.834	4804
993.054	4850
993.274	4796
993.494	4807
993.714	4822
993.934	4739
994.154	4767
994.374	4732
994.594	4620
994.813	4646
995.033	4619
995.253	4631
995.473	4594
995.692	4486
995.912	4524
996.131	4468
996.351	4457
996.57	4407
996.79	4346
997.009	4309
997.228	4293
997.448	4217
997.667	4193
997.886	4187
998.105	4159
998.325	4131
998.544	4083
998.763	4034
998.982	4045
999.201	3956
999.419	3985
999.638	3988
999.857	3929
1000.076	3873
1000.295	3899
1000.513	3913
1000.732	3850
1000.95	3818
1001.169	3830
1001.388	3784
1001.606	3749
1001.824	3772
1002.043	3742
1002.261	3704
1002.479	3678
1002.698	3657
1002.916	3660
1003.134	3638
1003.352	3613
1003.57	3567
1003.788	3608
1004.006	3565
1004.224	3571
1004.442	3512
1004.66	3476
1004.878	3440
1005.095	3448
1005.313	3451
1005.531	3415
1005.748	3374
1005.966	3404
1006.184	3338
1006.401	3327
1006.618	3310
1006.836	3294
1007.053	3281
1007.271	3274
1007.488	3221
1007.705	3240
1007.922	3219
1008.139	3164
1008.357	3144
1008.574	3147
1008.791	3138
1009.008	3178
1009.225	3144
1009.441	3146
1009.658	3122
1009.875	3130
1010.092	3054
1010.309	3026
1010.525	3009
1010.742	2989
1010.958	2972
1011.175	2937
1011.391	2888
1011.608	2885
1011.824	2905
1012.041	2864
1012.257	2840
1012.473	2787
1012.689	2781
1012.906	2784
1013.122	2734
1013.338	2755
1013.554	2755
1013.77	2760
1013.986	2778
1014.202	2701
1014.418	2727
1014.634	2753
1014.849	2731
1015.065	2753
1015.281	2749
1015.496	2759
1015.712	2686
1015.928	2688
1016.143	2641
1016.359	2645
1016.574	2543
1016.79	2567
1017.005	2543
1017.22	2508
1017.435	2454
1017.651	2443
1017.866	2379
1018.081	2338
1018.296	2299
1018.511	2301
1018.726	2271
1018.941	2232
1019.156	2223
1019.371	2222
1019.586	2196
1019.801	2175
1020.015	2171
1020.23	2119
1020.445	2140
1020.659	2090
1020.874	2099
1021.088	2028
1021.303	2016
1021.517	2021
1021.732	2009
1021.946	1979
1022.16	1990
1022.375	1953
1022.589	1912
1022.803	1929
1023.017	1862
1023.231	1819
1023.445	1775
1023.659	1758
1023.873	1718
1024.087	1726
1024.301	1690
1024.515	1659
1024.729	1595
1024.942	1598
1025.156	1570
1025.37	1539
1025.583	1517
1025.797	1497
1026.01	1440
1026.224	1417
1026.437	1405
1026.651	1336
1026.864	1306
1027.077	1302
1027.291	1256
1027.504	1218
1027.717	1194
1027.93	1153
1028.143	1104
1028.356	1055
1028.569	1030
1028.782	971
1028.995	-1
1029.208	-3
1029.421	2
1029.634	-3
