Data from QEP037381__588__16-13-04-289.txt Node

Date: Mon Mar 14 16:13:04 EDT 2022
User: dcclab
Spectrometer: QEP03738
Trigger mode: 4
Integration Time (sec): 1.000000E0
Scans to average: 1
Electric dark correction enabled: true
Nonlinearity correction enabled: false
Boxcar width: 0
XAxis mode: Wavelengths
Number of Pixels in Spectrum: 1044
>>>>>Begin Spectral Data<<<<<
783.959	13.88
784.218	-4.12
784.476	-3.12
784.734	-4.12
784.992	191.88
785.251	186.88
785.509	193.88
785.767	183.88
786.025	187.88
786.283	189.88
786.541	190.88
786.798	196.88
787.056	195.88
787.314	187.88
787.572	205.88
787.83	187.88
788.087	205.88
788.345	207.88
788.602	211.88
788.86	213.88
789.117	212.88
789.375	210.88
789.632	220.88
789.89	224.88
790.147	239.88
790.404	240.88
790.661	226.88
790.919	252.88
791.176	242.88
791.433	254.88
791.69	255.88
791.947	277.88
792.204	256.88
792.461	280.88
792.718	293.88
792.974	297.88
793.231	304.88
793.488	320.88
793.745	339.88
794.001	338.88
794.258	369.88
794.514	364.88
794.771	407.88
795.027	436.88
795.284	446.88
795.54	480.88
795.797	523.88
796.053	550.88
796.309	623.88
796.565	677.88
796.822	769.88
797.078	867.88
797.334	1035.88
797.59	1238.88
797.846	1536.88
798.102	1990.88
798.358	2716.88
798.614	3919.88
798.869	5745.88
799.125	8466.88
799.381	12425.88
799.637	17805.88
799.892	24151.88
800.148	31217.88
800.403	38142.88
800.659	43871.88
800.914	48538.88
801.17	51768.88
801.425	53836.88
801.68	54977.88
801.936	56513.88
802.191	57749.88
802.446	58876.88
802.701	60130.88
802.957	61283.88
803.212	62440.88
803.467	63704.88
803.722	64903.88
803.977	66155.88
804.232	67280.88
804.486	68774.88
804.741	70071.88
804.996	71363.88
805.251	72363.88
805.505	73603.88
805.76	74984.88
806.015	75790.88
806.269	76728.88
806.524	77761.88
806.778	78250.88
807.033	78783.88
807.287	79792.88
807.541	80531.88
807.796	81853.88
808.05	82463.88
808.304	83232.88
808.558	83913.88
808.812	84468.88
809.066	85093.88
809.32	85739.88
809.574	86367.88
809.828	86968.88
810.082	87269.88
810.336	87954.88
810.59	88765.88
810.844	89706.88
811.097	90709.88
811.351	92141.88
811.605	93572.88
811.858	95020.88
812.112	96475.88
812.365	98218.88
812.619	99362.88
812.872	100661.88
813.126	102017.88
813.379	103317.88
813.632	104589.88
813.885	105817.88
814.139	107568.88
814.392	108772.88
814.645	110687.88
814.898	112649.88
815.151	114613.88
815.404	116672.88
815.657	118774.88
815.91	120228.88
816.163	121445.88
816.416	122605.88
816.668	123554.88
816.921	124247.88
817.174	124265.88
817.426	124376.88
817.679	124299.88
817.931	124215.88
818.184	124102.88
818.436	124159.88
818.689	124163.88
818.941	124078.88
819.194	124760.88
819.446	125015.88
819.698	125595.88
819.95	126112.88
820.202	126361.88
820.455	126861.88
820.707	127139.88
820.959	126959.88
821.211	127235.88
821.462	126794.88
821.714	126468.88
821.966	125954.88
822.218	125051.88
822.47	124631.88
822.722	124126.88
822.973	123604.88
823.225	123308.88
823.476	123066.88
823.728	122855.88
823.979	122951.88
824.231	122900.88
824.482	123023.88
824.734	122893.88
824.985	122707.88
825.236	122695.88
825.487	122129.88
825.739	122056.88
825.99	121393.88
826.241	121142.88
826.492	120136.88
826.743	119448.88
826.994	119072.88
827.245	118879.88
827.496	118023.88
827.747	117945.88
827.997	118029.88
828.248	118127.88
828.499	118174.88
828.75	118233.88
829	118220.88
829.251	118025.88
829.501	117942.88
829.752	117118.88
830.002	116382.88
830.253	115578.88
830.503	115025.88
830.753	114252.88
831.004	113339.88
831.254	112883.88
831.504	112567.88
831.754	112264.88
832.004	112002.88
832.254	112056.88
832.504	112141.88
832.754	112132.88
833.004	111763.88
833.254	111479.88
833.504	111166.88
833.754	111112.88
834.003	110471.88
834.253	110063.88
834.503	109467.88
834.752	108652.88
835.002	107702.88
835.252	107501.88
835.501	106939.88
835.75	106372.88
836	106103.88
836.249	106064.88
836.499	105634.88
836.748	105669.88
836.997	105641.88
837.246	105698.88
837.495	105707.88
837.744	105964.88
837.993	105808.88
838.242	105645.88
838.491	105049.88
838.74	104265.88
838.989	103891.88
839.238	102984.88
839.487	102664.88
839.736	102079.88
839.984	101580.88
840.233	101119.88
840.482	100548.88
840.73	100179.88
840.979	99774.88
841.227	99370.88
841.476	99111.88
841.724	98929.88
841.972	98644.88
842.221	98294.88
842.469	98070.88
842.717	97337.88
842.965	97199.88
843.213	96932.88
843.461	96461.88
843.71	95973.88
843.958	95609.88
844.205	95295.88
844.453	94970.88
844.701	94928.88
844.949	94847.88
845.197	94763.88
845.445	94618.88
845.692	95202.88
845.94	94712.88
846.188	94766.88
846.435	94325.88
846.683	94027.88
846.93	93587.88
847.178	93055.88
847.425	92297.88
847.672	91722.88
847.92	91190.88
848.167	89903.88
848.414	89318.88
848.661	88691.88
848.908	88124.88
849.155	87996.88
849.402	87527.88
849.649	87484.88
849.896	87782.88
850.143	88116.88
850.39	88461.88
850.637	88449.88
850.884	88436.88
851.131	88270.88
851.377	88068.88
851.624	87747.88
851.87	87228.88
852.117	86586.88
852.364	86448.88
852.61	85737.88
852.856	85447.88
853.103	85063.88
853.349	84815.88
853.595	84376.88
853.842	83876.88
854.088	83771.88
854.334	83948.88
854.58	83866.88
854.826	83691.88
855.072	83116.88
855.318	82272.88
855.564	81720.88
855.81	80837.88
856.056	80110.88
856.302	79467.88
856.548	79016.88
856.793	78533.88
857.039	78173.88
857.285	78064.88
857.53	78118.88
857.776	78162.88
858.021	78456.88
858.267	78832.88
858.512	78733.88
858.758	79003.88
859.003	78731.88
859.248	78862.88
859.493	78572.88
859.739	78296.88
859.984	78165.88
860.229	77683.88
860.474	77195.88
860.719	76837.88
860.964	76363.88
861.209	75813.88
861.454	75195.88
861.699	74842.88
861.943	74524.88
862.188	74102.88
862.433	73698.88
862.678	73661.88
862.922	73364.88
863.167	73261.88
863.411	72986.88
863.656	72735.88
863.9	72806.88
864.145	72342.88
864.389	71982.88
864.634	71612.88
864.878	71656.88
865.122	71193.88
865.366	70909.88
865.61	70752.88
865.855	70467.88
866.099	70460.88
866.343	70246.88
866.587	69884.88
866.831	69690.88
867.074	69754.88
867.318	69743.88
867.562	69783.88
867.806	69669.88
868.05	69648.88
868.293	69398.88
868.537	69272.88
868.78	68809.88
869.024	68471.88
869.267	68225.88
869.511	67560.88
869.754	67133.88
869.998	66430.88
870.241	65858.88
870.484	65488.88
870.728	64924.88
870.971	64615.88
871.214	64386.88
871.457	64154.88
871.7	64208.88
871.943	64089.88
872.186	64226.88
872.429	64127.88
872.672	64263.88
872.915	63940.88
873.158	63870.88
873.4	63851.88
873.643	63616.88
873.886	63509.88
874.128	63313.88
874.371	63100.88
874.613	62978.88
874.856	62779.88
875.098	62401.88
875.341	62547.88
875.583	62149.88
875.825	61752.88
876.068	61644.88
876.31	61285.88
876.552	60647.88
876.794	60201.88
877.036	59519.88
877.278	59272.88
877.52	59033.88
877.762	58811.88
878.004	58574.88
878.246	58417.88
878.488	58408.88
878.73	58352.88
878.972	58195.88
879.213	58082.88
879.455	58156.88
879.697	57871.88
879.938	57741.88
880.18	57460.88
880.421	57235.88
880.663	56869.88
880.904	56821.88
881.145	56819.88
881.387	56784.88
881.628	56702.88
881.869	56490.88
882.11	56503.88
882.352	56110.88
882.593	56152.88
882.834	56072.88
883.075	55881.88
883.316	55721.88
883.557	55600.88
883.797	55199.88
884.038	54867.88
884.279	54181.88
884.52	53714.88
884.761	53457.88
885.001	52867.88
885.242	52401.88
885.482	52209.88
885.723	51755.88
885.963	51496.88
886.204	51419.88
886.444	51225.88
886.685	51085.88
886.925	50922.88
887.165	50742.88
887.405	50295.88
887.646	50115.88
887.886	50071.88
888.126	50021.88
888.366	50063.88
888.606	50045.88
888.846	50078.88
889.086	50400.88
889.326	50241.88
889.565	50267.88
889.805	50107.88
890.045	49832.88
890.285	49605.88
890.524	49625.88
890.764	49415.88
891.003	49124.88
891.243	48567.88
891.482	48071.88
891.722	47583.88
891.961	47408.88
892.201	46999.88
892.44	46790.88
892.679	46672.88
892.918	46362.88
893.158	46241.88
893.397	46047.88
893.636	45998.88
893.875	45712.88
894.114	45499.88
894.353	45416.88
894.592	45297.88
894.831	45029.88
895.069	44835.88
895.308	44396.88
895.547	44171.88
895.786	43968.88
896.024	44093.88
896.263	43811.88
896.501	43640.88
896.74	43677.88
896.978	43669.88
897.217	43523.88
897.455	43469.88
897.694	43374.88
897.932	43072.88
898.17	42899.88
898.408	42750.88
898.646	42612.88
898.885	42397.88
899.123	42181.88
899.361	41909.88
899.599	41482.88
899.837	41351.88
900.075	41108.88
900.312	40842.88
900.55	40427.88
900.788	40158.88
901.026	39675.88
901.263	39511.88
901.501	39121.88
901.739	38881.88
901.976	38665.88
902.214	38574.88
902.451	38341.88
902.689	38465.88
902.926	38123.88
903.163	38244.88
903.401	38133.88
903.638	38201.88
903.875	38084.88
904.112	38078.88
904.349	37916.88
904.586	37768.88
904.823	37685.88
905.06	37478.88
905.297	37166.88
905.534	36967.88
905.771	36668.88
906.008	36443.88
906.245	36176.88
906.481	35970.88
906.718	35766.88
906.955	35587.88
907.191	35372.88
907.428	35158.88
907.664	35071.88
907.901	34924.88
908.137	34853.88
908.374	34717.88
908.61	34689.88
908.846	34395.88
909.083	34244.88
909.319	33981.88
909.555	33833.88
909.791	33526.88
910.027	33244.88
910.263	32970.88
910.499	32727.88
910.735	32578.88
910.971	32314.88
911.207	31929.88
911.443	31876.88
911.678	31812.88
911.914	31625.88
912.15	31507.88
912.385	31518.88
912.621	31350.88
912.857	31440.88
913.092	31307.88
913.328	31301.88
913.563	31199.88
913.798	31102.88
914.034	31094.88
914.269	30907.88
914.504	30877.88
914.739	30651.88
914.975	30554.88
915.21	30383.88
915.445	30053.88
915.68	29904.88
915.915	29559.88
916.15	29289.88
916.384	28959.88
916.619	28655.88
916.854	28389.88
917.089	28263.88
917.324	28110.88
917.558	27841.88
917.793	27700.88
918.028	27585.88
918.262	27435.88
918.497	27403.88
918.731	27355.88
918.965	27328.88
919.2	27306.88
919.434	27308.88
919.668	27130.88
919.903	27014.88
920.137	26920.88
920.371	26697.88
920.605	26724.88
920.839	26492.88
921.073	26094.88
921.307	26045.88
921.541	25852.88
921.775	25643.88
922.009	25540.88
922.243	25559.88
922.476	25518.88
922.71	25437.88
922.944	25384.88
923.177	25170.88
923.411	25276.88
923.644	25208.88
923.878	25136.88
924.111	24974.88
924.345	24873.88
924.578	24735.88
924.811	24581.88
925.045	24422.88
925.278	24162.88
925.511	24109.88
925.744	23932.88
925.977	23828.88
926.21	23517.88
926.443	23304.88
926.676	23083.88
926.909	22940.88
927.142	22733.88
927.375	22644.88
927.608	22464.88
927.841	22320.88
928.073	22191.88
928.306	22171.88
928.539	22116.88
928.771	22123.88
929.004	22027.88
929.236	22013.88
929.469	22058.88
929.701	22087.88
929.933	22059.88
930.166	21999.88
930.398	22015.88
930.63	21951.88
930.862	21822.88
931.094	21697.88
931.327	21612.88
931.559	21462.88
931.791	21217.88
932.023	21111.88
932.255	21089.88
932.486	20854.88
932.718	20616.88
932.95	20500.88
933.182	20460.88
933.413	20243.88
933.645	20150.88
933.877	20134.88
934.108	20016.88
934.34	20011.88
934.571	19880.88
934.803	19766.88
935.034	19640.88
935.265	19558.88
935.497	19496.88
935.728	19415.88
935.959	19339.88
936.19	19179.88
936.422	19080.88
936.653	19157.88
936.884	18838.88
937.115	18830.88
937.346	18645.88
937.577	18667.88
937.807	18507.88
938.038	18366.88
938.269	18355.88
938.5	18329.88
938.73	18210.88
938.961	18208.88
939.192	18174.88
939.422	18091.88
939.653	18002.88
939.883	18041.88
940.114	17969.88
940.344	17964.88
940.574	17887.88
940.805	17791.88
941.035	17698.88
941.265	17554.88
941.495	17377.88
941.726	17183.88
941.956	17051.88
942.186	16881.88
942.416	16831.88
942.646	16804.88
942.876	16577.88
943.105	16452.88
943.335	16287.88
943.565	16193.88
943.795	16101.88
944.024	15999.88
944.254	15949.88
944.484	15773.88
944.713	15646.88
944.943	15647.88
945.172	15524.88
945.402	15462.88
945.631	15444.88
945.86	15471.88
946.09	15423.88
946.319	15349.88
946.548	15308.88
946.777	15202.88
947.006	15203.88
947.235	15172.88
947.465	15082.88
947.694	14955.88
947.922	14928.88
948.151	14726.88
948.38	14560.88
948.609	14490.88
948.838	14515.88
949.067	14313.88
949.295	14210.88
949.524	14081.88
949.752	14068.88
949.981	13922.88
950.21	13853.88
950.438	13786.88
950.666	13687.88
950.895	13583.88
951.123	13561.88
951.351	13476.88
951.58	13380.88
951.808	13215.88
952.036	13205.88
952.264	13189.88
952.492	13028.88
952.72	12959.88
952.948	13002.88
953.176	12877.88
953.404	12686.88
953.632	12687.88
953.86	12530.88
954.088	12380.88
954.315	12383.88
954.543	12241.88
954.771	12221.88
954.998	12132.88
955.226	12105.88
955.453	12014.88
955.681	11979.88
955.908	11892.88
956.135	11909.88
956.363	11833.88
956.59	11864.88
956.817	11761.88
957.045	11807.88
957.272	11668.88
957.499	11656.88
957.726	11630.88
957.953	11555.88
958.18	11544.88
958.407	11430.88
958.634	11397.88
958.861	11306.88
959.087	11231.88
959.314	11094.88
959.541	10942.88
959.767	10897.88
959.994	10874.88
960.221	10791.88
960.447	10686.88
960.674	10612.88
960.9	10483.88
961.127	10526.88
961.353	10327.88
961.579	10317.88
961.806	10236.88
962.032	10124.88
962.258	10102.88
962.484	10058.88
962.71	10030.88
962.936	10097.88
963.162	10021.88
963.388	9987.88
963.614	9906.88
963.84	9904.88
964.066	9918.88
964.292	9795.88
964.518	9784.88
964.743	9699.88
964.969	9766.88
965.195	9689.88
965.42	9587.88
965.646	9602.88
965.871	9544.88
966.097	9436.88
966.322	9368.88
966.547	9319.88
966.773	9259.88
966.998	9256.88
967.223	9147.88
967.448	9166.88
967.674	9046.88
967.899	9024.88
968.124	8916.88
968.349	8907.88
968.574	8855.88
968.799	8860.88
969.024	8713.88
969.248	8709.88
969.473	8674.88
969.698	8611.88
969.923	8537.88
970.147	8530.88
970.372	8469.88
970.596	8419.88
970.821	8322.88
971.046	8276.88
971.27	8273.88
971.494	8175.88
971.719	8153.88
971.943	8086.88
972.167	8031.88
972.392	8042.88
972.616	7952.88
972.84	7846.88
973.064	7879.88
973.288	7796.88
973.512	7764.88
973.736	7746.88
973.96	7681.88
974.184	7665.88
974.408	7625.88
974.631	7616.88
974.855	7586.88
975.079	7562.88
975.303	7518.88
975.526	7422.88
975.75	7472.88
975.973	7428.88
976.197	7341.88
976.42	7332.88
976.644	7260.88
976.867	7253.88
977.09	7211.88
977.313	7158.88
977.537	7104.88
977.76	7009.88
977.983	6964.88
978.206	6933.88
978.429	6899.88
978.652	6875.88
978.875	6844.88
979.098	6735.88
979.321	6760.88
979.544	6622.88
979.767	6623.88
979.989	6510.88
980.212	6534.88
980.435	6438.88
980.657	6403.88
980.88	6399.88
981.102	6389.88
981.325	6398.88
981.547	6330.88
981.77	6230.88
981.992	6262.88
982.214	6195.88
982.437	6239.88
982.659	6164.88
982.881	6143.88
983.103	6133.88
983.325	6110.88
983.547	6080.88
983.769	6006.88
983.991	6000.88
984.213	6003.88
984.435	5934.88
984.657	5905.88
984.879	5868.88
985.1	5839.88
985.322	5800.88
985.544	5783.88
985.765	5730.88
985.987	5736.88
986.208	5680.88
986.43	5668.88
986.651	5600.88
986.873	5545.88
987.094	5576.88
987.315	5480.88
987.536	5485.88
987.758	5402.88
987.979	5354.88
988.2	5353.88
988.421	5381.88
988.642	5275.88
988.863	5286.88
989.084	5195.88
989.305	5219.88
989.526	5177.88
989.747	5101.88
989.967	5063.88
990.188	5037.88
990.409	5047.88
990.629	4950.88
990.85	4947.88
991.071	4849.88
991.291	4888.88
991.512	4829.88
991.732	4792.88
991.952	4803.88
992.173	4747.88
992.393	4772.88
992.613	4743.88
992.834	4699.88
993.054	4644.88
993.274	4676.88
993.494	4606.88
993.714	4632.88
993.934	4641.88
994.154	4611.88
994.374	4562.88
994.594	4521.88
994.813	4519.88
995.033	4504.88
995.253	4471.88
995.473	4477.88
995.692	4418.88
995.912	4405.88
996.131	4351.88
996.351	4294.88
996.57	4295.88
996.79	4221.88
997.009	4212.88
997.228	4188.88
997.448	4132.88
997.667	4062.88
997.886	4048.88
998.105	4036.88
998.325	3987.88
998.544	3992.88
998.763	3912.88
998.982	3923.88
999.201	3898.88
999.419	3838.88
999.638	3842.88
999.857	3843.88
1000.076	3764.88
1000.295	3807.88
1000.513	3792.88
1000.732	3736.88
1000.95	3713.88
1001.169	3699.88
1001.388	3674.88
1001.606	3672.88
1001.824	3647.88
1002.043	3637.88
1002.261	3610.88
1002.479	3563.88
1002.698	3570.88
1002.916	3547.88
1003.134	3563.88
1003.352	3530.88
1003.57	3517.88
1003.788	3487.88
1004.006	3412.88
1004.224	3449.88
1004.442	3378.88
1004.66	3413.88
1004.878	3373.88
1005.095	3360.88
1005.313	3343.88
1005.531	3318.88
1005.748	3248.88
1005.966	3324.88
1006.184	3242.88
1006.401	3244.88
1006.618	3219.88
1006.836	3180.88
1007.053	3189.88
1007.271	3179.88
1007.488	3163.88
1007.705	3162.88
1007.922	3131.88
1008.139	3092.88
1008.357	3098.88
1008.574	3085.88
1008.791	3099.88
1009.008	3052.88
1009.225	3091.88
1009.441	3051.88
1009.658	3052.88
1009.875	3034.88
1010.092	3000.88
1010.309	2995.88
1010.525	2947.88
1010.742	2900.88
1010.958	2871.88
1011.175	2847.88
1011.391	2842.88
1011.608	2834.88
1011.824	2799.88
1012.041	2764.88
1012.257	2759.88
1012.473	2716.88
1012.689	2717.88
1012.906	2695.88
1013.122	2662.88
1013.338	2671.88
1013.554	2671.88
1013.77	2678.88
1013.986	2643.88
1014.202	2629.88
1014.418	2676.88
1014.634	2677.88
1014.849	2667.88
1015.065	2651.88
1015.281	2679.88
1015.496	2651.88
1015.712	2640.88
1015.928	2621.88
1016.143	2583.88
1016.359	2555.88
1016.574	2488.88
1016.79	2502.88
1017.005	2462.88
1017.22	2445.88
1017.435	2391.88
1017.651	2359.88
1017.866	2302.88
1018.081	2303.88
1018.296	2241.88
1018.511	2250.88
1018.726	2249.88
1018.941	2182.88
1019.156	2145.88
1019.371	2173.88
1019.586	2135.88
1019.801	2113.88
1020.015	2088.88
1020.23	2107.88
1020.445	2069.88
1020.659	2034.88
1020.874	2054.88
1021.088	1993.88
1021.303	1991.88
1021.517	1977.88
1021.732	1933.88
1021.946	1961.88
1022.16	1919.88
1022.375	1902.88
1022.589	1895.88
1022.803	1858.88
1023.017	1829.88
1023.231	1823.88
1023.445	1806.88
1023.659	1734.88
1023.873	1724.88
1024.087	1666.88
1024.301	1656.88
1024.515	1622.88
1024.729	1586.88
1024.942	1563.88
1025.156	1522.88
1025.37	1504.88
1025.583	1493.88
1025.797	1438.88
1026.01	1421.88
1026.224	1399.88
1026.437	1359.88
1026.651	1319.88
1026.864	1276.88
1027.077	1263.88
1027.291	1212.88
1027.504	1175.88
1027.717	1148.88
1027.93	1132.88
1028.143	1097.88
1028.356	1063.88
1028.569	998.88
1028.782	954.88
1028.995	-2.12
1029.208	-3.12
1029.421	1.88
1029.634	0.88
