Data from QEP037381__557__16-12-23-288.txt Node

Date: Mon Mar 14 16:12:23 EDT 2022
User: dcclab
Spectrometer: QEP03738
Trigger mode: 4
Integration Time (sec): 1.000000E0
Scans to average: 1
Electric dark correction enabled: true
Nonlinearity correction enabled: false
Boxcar width: 0
XAxis mode: Wavelengths
Number of Pixels in Spectrum: 1044
>>>>>Begin Spectral Data<<<<<
783.959	17.62
784.218	-0.38
784.476	-2.38
784.734	-2.38
784.992	176.62
785.251	187.62
785.509	188.62
785.767	172.62
786.025	184.62
786.283	196.62
786.541	179.62
786.798	196.62
787.056	186.62
787.314	188.62
787.572	198.62
787.83	202.62
788.087	195.62
788.345	189.62
788.602	205.62
788.86	199.62
789.117	202.62
789.375	201.62
789.632	201.62
789.89	218.62
790.147	227.62
790.404	222.62
790.661	228.62
790.919	232.62
791.176	235.62
791.433	243.62
791.69	247.62
791.947	259.62
792.204	257.62
792.461	277.62
792.718	280.62
792.974	281.62
793.231	292.62
793.488	322.62
793.745	319.62
794.001	336.62
794.258	360.62
794.514	361.62
794.771	393.62
795.027	415.62
795.284	442.62
795.54	476.62
795.797	499.62
796.053	551.62
796.309	597.62
796.565	650.62
796.822	721.62
797.078	852.62
797.334	972.62
797.59	1192.62
797.846	1489.62
798.102	1931.62
798.358	2623.62
798.614	3782.62
798.869	5520.62
799.125	8122.62
799.381	11984.62
799.637	17089.62
799.892	23299.62
800.148	29950.62
800.403	36455.62
800.659	42004.62
800.914	46364.62
801.17	49381.62
801.425	51361.62
801.68	52738.62
801.936	54004.62
802.191	55071.62
802.446	56371.62
802.701	57450.62
802.957	58372.62
803.212	59669.62
803.467	60923.62
803.722	61845.62
803.977	63024.62
804.232	64283.62
804.486	65643.62
804.741	67068.62
804.996	68053.62
805.251	69159.62
805.505	70408.62
805.76	71599.62
806.015	72530.62
806.269	73501.62
806.524	74234.62
806.778	74644.62
807.033	75323.62
807.287	76106.62
807.541	77126.62
807.796	78038.62
808.05	79164.62
808.304	79708.62
808.558	80226.62
808.812	80631.62
809.066	81432.62
809.32	81869.62
809.574	82430.62
809.828	82971.62
810.082	83456.62
810.336	84223.62
810.59	85036.62
810.844	85869.62
811.097	87038.62
811.351	88046.62
811.605	89508.62
811.858	90985.62
812.112	92371.62
812.365	93838.62
812.619	94962.62
812.872	96599.62
813.126	97834.62
813.379	99012.62
813.632	100202.62
813.885	101379.62
814.139	102746.62
814.392	104143.62
814.645	105933.62
814.898	107831.62
815.151	110002.62
815.404	111697.62
815.657	113446.62
815.91	115267.62
816.163	116525.62
816.416	117602.62
816.668	118346.62
816.921	119076.62
817.174	119122.62
817.426	119252.62
817.679	119344.62
817.931	118960.62
818.184	119098.62
818.436	118923.62
818.689	118940.62
818.941	118826.62
819.194	119507.62
819.446	120065.62
819.698	120484.62
819.95	120843.62
820.202	121127.62
820.455	121657.62
820.707	121794.62
820.959	121914.62
821.211	121726.62
821.462	121736.62
821.714	121265.62
821.966	120801.62
822.218	120048.62
822.47	119720.62
822.722	118917.62
822.973	118543.62
823.225	118551.62
823.476	117980.62
823.728	117907.62
823.979	118009.62
824.231	118226.62
824.482	118260.62
824.734	117963.62
824.985	117668.62
825.236	117817.62
825.487	116910.62
825.739	117083.62
825.99	116412.62
826.241	116006.62
826.492	115591.62
826.743	114694.62
826.994	114269.62
827.245	113832.62
827.496	113486.62
827.747	113102.62
827.997	113372.62
828.248	113322.62
828.499	113489.62
828.75	113522.62
829	113155.62
829.251	112924.62
829.501	112827.62
829.752	112239.62
830.002	111545.62
830.253	110814.62
830.503	110358.62
830.753	109732.62
831.004	108825.62
831.254	108370.62
831.504	108098.62
831.754	107977.62
832.004	107685.62
832.254	107623.62
832.504	107568.62
832.754	107686.62
833.004	107406.62
833.254	106971.62
833.504	106874.62
833.754	106514.62
834.003	106047.62
834.253	105919.62
834.503	105034.62
834.752	104277.62
835.002	103765.62
835.252	103136.62
835.501	102579.62
835.75	102251.62
836	102223.62
836.249	101973.62
836.499	101721.62
836.748	101660.62
836.997	101500.62
837.246	101489.62
837.495	101699.62
837.744	101954.62
837.993	101766.62
838.242	101529.62
838.491	101310.62
838.74	100583.62
838.989	99576.62
839.238	98996.62
839.487	98835.62
839.736	98266.62
839.984	97786.62
840.233	97263.62
840.482	96824.62
840.73	96454.62
840.979	96011.62
841.227	95627.62
841.476	95384.62
841.724	94955.62
841.972	94815.62
842.221	94676.62
842.469	94329.62
842.717	93759.62
842.965	93569.62
843.213	93235.62
843.461	92881.62
843.71	92285.62
843.958	92043.62
844.205	91590.62
844.453	91740.62
844.701	91682.62
844.949	91693.62
845.197	91245.62
845.445	91279.62
845.692	91485.62
845.94	91025.62
846.188	91281.62
846.435	90927.62
846.683	90653.62
846.93	90445.62
847.178	89945.62
847.425	89082.62
847.672	88335.62
847.92	87932.62
848.167	86732.62
848.414	85814.62
848.661	85285.62
848.908	84913.62
849.155	84506.62
849.402	84426.62
849.649	84370.62
849.896	84753.62
850.143	84713.62
850.39	85259.62
850.637	85092.62
850.884	85291.62
851.131	85056.62
851.377	84752.62
851.624	84520.62
851.87	83890.62
852.117	83725.62
852.364	83094.62
852.61	82981.62
852.856	82437.62
853.103	82045.62
853.349	81809.62
853.595	81207.62
853.842	81007.62
854.088	80819.62
854.334	81173.62
854.58	80854.62
854.826	80518.62
855.072	80100.62
855.318	79397.62
855.564	78578.62
855.81	77944.62
856.056	77471.62
856.302	76775.62
856.548	76158.62
856.793	75915.62
857.039	75510.62
857.285	75342.62
857.53	75260.62
857.776	75283.62
858.021	75450.62
858.267	75861.62
858.512	75912.62
858.758	75837.62
859.003	76164.62
859.248	76022.62
859.493	75786.62
859.739	75606.62
859.984	75184.62
860.229	74973.62
860.474	74358.62
860.719	74055.62
860.964	73683.62
861.209	73248.62
861.454	72802.62
861.699	72285.62
861.943	71572.62
862.188	71425.62
862.433	71379.62
862.678	71043.62
862.922	70791.62
863.167	70614.62
863.411	70397.62
863.656	70188.62
863.9	69987.62
864.145	69784.62
864.389	69446.62
864.634	69155.62
864.878	69031.62
865.122	68625.62
865.366	68310.62
865.61	68301.62
865.855	68221.62
866.099	67921.62
866.343	67855.62
866.587	67490.62
866.831	67331.62
867.074	67391.62
867.318	67310.62
867.562	67418.62
867.806	67192.62
868.05	67202.62
868.293	67027.62
868.537	66705.62
868.78	66635.62
869.024	66189.62
869.267	65599.62
869.511	65374.62
869.754	64591.62
869.998	64073.62
870.241	63600.62
870.484	63117.62
870.728	62688.62
870.971	62409.62
871.214	62153.62
871.457	61773.62
871.7	61923.62
871.943	61957.62
872.186	61886.62
872.429	61902.62
872.672	61980.62
872.915	61885.62
873.158	61899.62
873.4	61745.62
873.643	61656.62
873.886	61394.62
874.128	61121.62
874.371	60905.62
874.613	60741.62
874.856	60657.62
875.098	60347.62
875.341	60172.62
875.583	60009.62
875.825	59809.62
876.068	59802.62
876.31	59029.62
876.552	58611.62
876.794	58098.62
877.036	57449.62
877.278	57214.62
877.52	56906.62
877.762	56761.62
878.004	56578.62
878.246	56363.62
878.488	56355.62
878.73	56241.62
878.972	56163.62
879.213	56237.62
879.455	55990.62
879.697	55833.62
879.938	55612.62
880.18	55482.62
880.421	55184.62
880.663	55119.62
880.904	54881.62
881.145	54710.62
881.387	54858.62
881.628	54932.62
881.869	54499.62
882.11	54654.62
882.352	54373.62
882.593	54334.62
882.834	54360.62
883.075	54056.62
883.316	53882.62
883.557	53677.62
883.797	53369.62
884.038	52908.62
884.279	52343.62
884.52	51887.62
884.761	51372.62
885.001	51078.62
885.242	50774.62
885.482	50429.62
885.723	50018.62
885.963	49999.62
886.204	49742.62
886.444	49588.62
886.685	49415.62
886.925	49181.62
887.165	48869.62
887.405	48717.62
887.646	48471.62
887.886	48354.62
888.126	48139.62
888.366	48395.62
888.606	48186.62
888.846	48361.62
889.086	48585.62
889.326	48494.62
889.565	48527.62
889.805	48447.62
890.045	48171.62
890.285	48067.62
890.524	47995.62
890.764	47770.62
891.003	47514.62
891.243	46948.62
891.482	46570.62
891.722	46063.62
891.961	45813.62
892.201	45613.62
892.44	45250.62
892.679	44951.62
892.918	44738.62
893.158	44829.62
893.397	44598.62
893.636	44415.62
893.875	44265.62
894.114	44004.62
894.353	43809.62
894.592	43788.62
894.831	43367.62
895.069	43097.62
895.308	43031.62
895.547	42823.62
895.786	42464.62
896.024	42562.62
896.263	42138.62
896.501	42241.62
896.74	42241.62
896.978	42160.62
897.217	41980.62
897.455	41858.62
897.694	41791.62
897.932	41581.62
898.17	41558.62
898.408	41186.62
898.646	41116.62
898.885	40930.62
899.123	40836.62
899.361	40552.62
899.599	40103.62
899.837	40035.62
900.075	39710.62
900.312	39448.62
900.55	39169.62
900.788	38801.62
901.026	38305.62
901.263	38140.62
901.501	37831.62
901.739	37592.62
901.976	37511.62
902.214	37268.62
902.451	37048.62
902.689	37075.62
902.926	37047.62
903.163	36926.62
903.401	36874.62
903.638	36994.62
903.875	36773.62
904.112	36693.62
904.349	36652.62
904.586	36586.62
904.823	36308.62
905.06	36233.62
905.297	36024.62
905.534	35632.62
905.771	35508.62
906.008	35129.62
906.245	35080.62
906.481	34723.62
906.718	34602.62
906.955	34476.62
907.191	34167.62
907.428	34065.62
907.664	33933.62
907.901	33744.62
908.137	33611.62
908.374	33578.62
908.61	33460.62
908.846	33346.62
909.083	33192.62
909.319	32880.62
909.555	32696.62
909.791	32397.62
910.027	32049.62
910.263	31950.62
910.499	31659.62
910.735	31449.62
910.971	31187.62
911.207	30903.62
911.443	30901.62
911.678	30570.62
911.914	30519.62
912.15	30325.62
912.385	30575.62
912.621	30294.62
912.857	30467.62
913.092	30294.62
913.328	30307.62
913.563	30120.62
913.798	30104.62
914.034	30082.62
914.269	29772.62
914.504	29849.62
914.739	29795.62
914.975	29538.62
915.21	29214.62
915.445	29102.62
915.68	28876.62
915.915	28642.62
916.15	28354.62
916.384	28004.62
916.619	27646.62
916.854	27528.62
917.089	27200.62
917.324	27178.62
917.558	26902.62
917.793	26798.62
918.028	26716.62
918.262	26567.62
918.497	26530.62
918.731	26423.62
918.965	26466.62
919.2	26264.62
919.434	26370.62
919.668	26290.62
919.903	26114.62
920.137	26010.62
920.371	25905.62
920.605	25709.62
920.839	25541.62
921.073	25362.62
921.307	25166.62
921.541	24950.62
921.775	24921.62
922.009	24803.62
922.243	24651.62
922.476	24693.62
922.71	24635.62
922.944	24565.62
923.177	24436.62
923.411	24274.62
923.644	24304.62
923.878	24219.62
924.111	24099.62
924.345	24110.62
924.578	23978.62
924.811	23755.62
925.045	23639.62
925.278	23506.62
925.511	23367.62
925.744	23173.62
925.977	22946.62
926.21	22744.62
926.443	22568.62
926.676	22397.62
926.909	22139.62
927.142	22119.62
927.375	21814.62
927.608	21712.62
927.841	21591.62
928.073	21521.62
928.306	21429.62
928.539	21414.62
928.771	21358.62
929.004	21370.62
929.236	21346.62
929.469	21412.62
929.701	21371.62
929.933	21407.62
930.166	21269.62
930.398	21348.62
930.63	21264.62
930.862	21169.62
931.094	21068.62
931.327	20859.62
931.559	20752.62
931.791	20672.62
932.023	20484.62
932.255	20331.62
932.486	20162.62
932.718	20005.62
932.95	19843.62
933.182	19736.62
933.413	19702.62
933.645	19556.62
933.877	19467.62
934.108	19421.62
934.34	19256.62
934.571	19267.62
934.803	19077.62
935.034	19049.62
935.265	19037.62
935.497	18891.62
935.728	18805.62
935.959	18728.62
936.19	18579.62
936.422	18603.62
936.653	18418.62
936.884	18364.62
937.115	18259.62
937.346	18169.62
937.577	18023.62
937.807	17984.62
938.038	17747.62
938.269	17813.62
938.5	17705.62
938.73	17644.62
938.961	17586.62
939.192	17621.62
939.422	17572.62
939.653	17565.62
939.883	17472.62
940.114	17371.62
940.344	17357.62
940.574	17267.62
940.805	17152.62
941.035	17047.62
941.265	16870.62
941.495	16734.62
941.726	16688.62
941.956	16576.62
942.186	16434.62
942.416	16275.62
942.646	16234.62
942.876	15933.62
943.105	15903.62
943.335	15793.62
943.565	15701.62
943.795	15544.62
944.024	15429.62
944.254	15325.62
944.484	15248.62
944.713	15156.62
944.943	15183.62
945.172	15122.62
945.402	15073.62
945.631	15031.62
945.86	15037.62
946.09	14954.62
946.319	14876.62
946.548	14831.62
946.777	14889.62
947.006	14792.62
947.235	14717.62
947.465	14646.62
947.694	14443.62
947.922	14389.62
948.151	14325.62
948.38	14206.62
948.609	14090.62
948.838	13924.62
949.067	13930.62
949.295	13883.62
949.524	13748.62
949.752	13698.62
949.981	13582.62
950.21	13438.62
950.438	13367.62
950.666	13276.62
950.895	13184.62
951.123	13075.62
951.351	13040.62
951.58	12920.62
951.808	12900.62
952.036	12805.62
952.264	12757.62
952.492	12779.62
952.72	12623.62
952.948	12530.62
953.176	12416.62
953.404	12356.62
953.632	12251.62
953.86	12213.62
954.088	12073.62
954.315	11992.62
954.543	11835.62
954.771	11800.62
954.998	11808.62
955.226	11748.62
955.453	11662.62
955.681	11589.62
955.908	11578.62
956.135	11572.62
956.363	11526.62
956.59	11502.62
956.817	11415.62
957.045	11428.62
957.272	11323.62
957.499	11263.62
957.726	11315.62
957.953	11205.62
958.18	11084.62
958.407	11121.62
958.634	11055.62
958.861	10946.62
959.087	10888.62
959.314	10822.62
959.541	10805.62
959.767	10670.62
959.994	10476.62
960.221	10512.62
960.447	10339.62
960.674	10395.62
960.9	10204.62
961.127	10275.62
961.353	10039.62
961.579	9964.62
961.806	9964.62
962.032	9935.62
962.258	9863.62
962.484	9862.62
962.71	9804.62
962.936	9692.62
963.162	9708.62
963.388	9756.62
963.614	9666.62
963.84	9615.62
964.066	9633.62
964.292	9540.62
964.518	9534.62
964.743	9517.62
964.969	9450.62
965.195	9466.62
965.42	9333.62
965.646	9286.62
965.871	9275.62
966.097	9172.62
966.322	9162.62
966.547	9116.62
966.773	9002.62
966.998	8970.62
967.223	8930.62
967.448	8842.62
967.674	8817.62
967.899	8800.62
968.124	8760.62
968.349	8661.62
968.574	8634.62
968.799	8590.62
969.024	8535.62
969.248	8445.62
969.473	8461.62
969.698	8354.62
969.923	8295.62
970.147	8259.62
970.372	8206.62
970.596	8205.62
970.821	8095.62
971.046	8006.62
971.27	7989.62
971.494	8005.62
971.719	7882.62
971.943	7820.62
972.167	7739.62
972.392	7717.62
972.616	7685.62
972.84	7656.62
973.064	7650.62
973.288	7546.62
973.512	7544.62
973.736	7580.62
973.96	7490.62
974.184	7447.62
974.408	7408.62
974.631	7389.62
974.855	7402.62
975.079	7389.62
975.303	7296.62
975.526	7298.62
975.75	7316.62
975.973	7238.62
976.197	7188.62
976.42	7123.62
976.644	7106.62
976.867	7003.62
977.09	6988.62
977.313	6967.62
977.537	6898.62
977.76	6858.62
977.983	6792.62
978.206	6809.62
978.429	6654.62
978.652	6696.62
978.875	6621.62
979.098	6541.62
979.321	6542.62
979.544	6484.62
979.767	6384.62
979.989	6417.62
980.212	6348.62
980.435	6318.62
980.657	6265.62
980.88	6263.62
981.102	6230.62
981.325	6179.62
981.547	6119.62
981.77	6064.62
981.992	6040.62
982.214	6082.62
982.437	6045.62
982.659	6027.62
982.881	5956.62
983.103	5922.62
983.325	5977.62
983.547	5865.62
983.769	5844.62
983.991	5876.62
984.213	5832.62
984.435	5777.62
984.657	5740.62
984.879	5707.62
985.1	5691.62
985.322	5663.62
985.544	5592.62
985.765	5571.62
985.987	5525.62
986.208	5514.62
986.43	5523.62
986.651	5449.62
986.873	5395.62
987.094	5427.62
987.315	5319.62
987.536	5302.62
987.758	5284.62
987.979	5223.62
988.2	5223.62
988.421	5165.62
988.642	5156.62
988.863	5094.62
989.084	5061.62
989.305	5029.62
989.526	5021.62
989.747	4968.62
989.967	4928.62
990.188	4862.62
990.409	4819.62
990.629	4821.62
990.85	4854.62
991.071	4739.62
991.291	4776.62
991.512	4710.62
991.732	4671.62
991.952	4650.62
992.173	4621.62
992.393	4642.62
992.613	4605.62
992.834	4566.62
993.054	4575.62
993.274	4558.62
993.494	4520.62
993.714	4504.62
993.934	4524.62
994.154	4481.62
994.374	4459.62
994.594	4417.62
994.813	4409.62
995.033	4415.62
995.253	4369.62
995.473	4343.62
995.692	4286.62
995.912	4269.62
996.131	4239.62
996.351	4184.62
996.57	4191.62
996.79	4107.62
997.009	4095.62
997.228	4040.62
997.448	4020.62
997.667	3995.62
997.886	3931.62
998.105	3934.62
998.325	3869.62
998.544	3834.62
998.763	3821.62
998.982	3797.62
999.201	3790.62
999.419	3735.62
999.638	3699.62
999.857	3715.62
1000.076	3705.62
1000.295	3668.62
1000.513	3640.62
1000.732	3663.62
1000.95	3651.62
1001.169	3617.62
1001.388	3602.62
1001.606	3582.62
1001.824	3543.62
1002.043	3518.62
1002.261	3521.62
1002.479	3457.62
1002.698	3493.62
1002.916	3450.62
1003.134	3422.62
1003.352	3369.62
1003.57	3368.62
1003.788	3407.62
1004.006	3381.62
1004.224	3349.62
1004.442	3309.62
1004.66	3313.62
1004.878	3261.62
1005.095	3255.62
1005.313	3264.62
1005.531	3256.62
1005.748	3238.62
1005.966	3237.62
1006.184	3151.62
1006.401	3168.62
1006.618	3127.62
1006.836	3085.62
1007.053	3133.62
1007.271	3113.62
1007.488	3046.62
1007.705	3044.62
1007.922	3025.62
1008.139	3009.62
1008.357	3002.62
1008.574	2998.62
1008.791	2960.62
1009.008	3008.62
1009.225	2967.62
1009.441	2964.62
1009.658	2990.62
1009.875	2933.62
1010.092	2977.62
1010.309	2968.62
1010.525	2862.62
1010.742	2837.62
1010.958	2789.62
1011.175	2819.62
1011.391	2778.62
1011.608	2766.62
1011.824	2746.62
1012.041	2708.62
1012.257	2699.62
1012.473	2698.62
1012.689	2675.62
1012.906	2645.62
1013.122	2597.62
1013.338	2604.62
1013.554	2619.62
1013.77	2597.62
1013.986	2579.62
1014.202	2582.62
1014.418	2565.62
1014.634	2613.62
1014.849	2635.62
1015.065	2630.62
1015.281	2604.62
1015.496	2592.62
1015.712	2570.62
1015.928	2550.62
1016.143	2530.62
1016.359	2493.62
1016.574	2434.62
1016.79	2419.62
1017.005	2389.62
1017.22	2363.62
1017.435	2318.62
1017.651	2304.62
1017.866	2263.62
1018.081	2245.62
1018.296	2215.62
1018.511	2178.62
1018.726	2171.62
1018.941	2148.62
1019.156	2094.62
1019.371	2097.62
1019.586	2068.62
1019.801	2068.62
1020.015	2081.62
1020.23	2040.62
1020.445	2017.62
1020.659	1989.62
1020.874	1998.62
1021.088	1934.62
1021.303	1960.62
1021.517	1928.62
1021.732	1885.62
1021.946	1864.62
1022.16	1898.62
1022.375	1863.62
1022.589	1835.62
1022.803	1816.62
1023.017	1774.62
1023.231	1730.62
1023.445	1712.62
1023.659	1647.62
1023.873	1678.62
1024.087	1630.62
1024.301	1607.62
1024.515	1557.62
1024.729	1580.62
1024.942	1515.62
1025.156	1492.62
1025.37	1477.62
1025.583	1435.62
1025.797	1404.62
1026.01	1390.62
1026.224	1359.62
1026.437	1316.62
1026.651	1289.62
1026.864	1255.62
1027.077	1219.62
1027.291	1177.62
1027.504	1140.62
1027.717	1102.62
1027.93	1102.62
1028.143	1090.62
1028.356	1010.62
1028.569	981.62
1028.782	921.62
1028.995	-2.38
1029.208	-6.38
1029.421	0.62
1029.634	-4.38
