Data from QEP037381__616__16-13-32-288.txt Node

Date: Mon Mar 14 16:13:32 EDT 2022
User: dcclab
Spectrometer: QEP03738
Trigger mode: 4
Integration Time (sec): 1.000000E0
Scans to average: 1
Electric dark correction enabled: true
Nonlinearity correction enabled: false
Boxcar width: 0
XAxis mode: Wavelengths
Number of Pixels in Spectrum: 1044
>>>>>Begin Spectral Data<<<<<
783.959	14.25
784.218	0.25
784.476	0.25
784.734	-5.75
784.992	191.25
785.251	196.25
785.509	198.25
785.767	196.25
786.025	191.25
786.283	192.25
786.541	204.25
786.798	208.25
787.056	201.25
787.314	196.25
787.572	206.25
787.83	204.25
788.087	223.25
788.345	218.25
788.602	224.25
788.86	225.25
789.117	219.25
789.375	229.25
789.632	218.25
789.89	236.25
790.147	239.25
790.404	246.25
790.661	258.25
790.919	254.25
791.176	244.25
791.433	262.25
791.69	260.25
791.947	267.25
792.204	270.25
792.461	286.25
792.718	296.25
792.974	311.25
793.231	315.25
793.488	343.25
793.745	359.25
794.001	365.25
794.258	368.25
794.514	398.25
794.771	423.25
795.027	459.25
795.284	468.25
795.54	509.25
795.797	543.25
796.053	588.25
796.309	640.25
796.565	704.25
796.822	779.25
797.078	890.25
797.334	1053.25
797.59	1258.25
797.846	1561.25
798.102	2069.25
798.358	2874.25
798.614	4082.25
798.869	5977.25
799.125	8892.25
799.381	12972.25
799.637	18496.25
799.892	25229.25
800.148	32447.25
800.403	39551.25
800.659	45756.25
800.914	50504.25
801.17	53799.25
801.425	55997.25
801.68	57586.25
801.936	59002.25
802.191	60127.25
802.446	61420.25
802.701	62765.25
802.957	63751.25
803.212	64989.25
803.467	66407.25
803.722	67750.25
803.977	68875.25
804.232	70052.25
804.486	71541.25
804.741	72813.25
804.996	74323.25
805.251	75560.25
805.505	76842.25
805.76	77990.25
806.015	78926.25
806.269	80029.25
806.524	81097.25
806.778	81670.25
807.033	82093.25
807.287	83226.25
807.541	84281.25
807.796	85233.25
808.05	86197.25
808.304	86818.25
808.558	87627.25
808.812	88180.25
809.066	88587.25
809.32	89343.25
809.574	89547.25
809.828	90516.25
810.082	91011.25
810.336	91696.25
810.59	92701.25
810.844	93684.25
811.097	94913.25
811.351	95985.25
811.605	97364.25
811.858	98930.25
812.112	100579.25
812.365	102148.25
812.619	103565.25
812.872	104852.25
813.126	106374.25
813.379	107701.25
813.632	109078.25
813.885	110514.25
814.139	111775.25
814.392	113361.25
814.645	114946.25
814.898	117208.25
815.151	119183.25
815.404	121553.25
815.657	123344.25
815.91	125151.25
816.163	126843.25
816.416	127790.25
816.668	128634.25
816.921	129206.25
817.174	129541.25
817.426	129584.25
817.679	129493.25
817.931	129296.25
818.184	129350.25
818.436	129027.25
818.689	128968.25
818.941	129403.25
819.194	129640.25
819.446	130366.25
819.698	130243.25
819.95	131259.25
820.202	131515.25
820.455	131877.25
820.707	132062.25
820.959	132046.25
821.211	132261.25
821.462	131989.25
821.714	131789.25
821.966	130944.25
822.218	130337.25
822.47	129586.25
822.722	129054.25
822.973	128448.25
823.225	127960.25
823.476	127697.25
823.728	127730.25
823.979	127933.25
824.231	128096.25
824.482	127888.25
824.734	127976.25
824.985	127578.25
825.236	127588.25
825.487	126887.25
825.739	126296.25
825.99	126223.25
826.241	125771.25
826.492	124852.25
826.743	124409.25
826.994	123702.25
827.245	123244.25
827.496	122888.25
827.747	122562.25
827.997	122258.25
828.248	122435.25
828.499	122772.25
828.75	122566.25
829	122534.25
829.251	122530.25
829.501	122077.25
829.752	121648.25
830.002	120843.25
830.253	119948.25
830.503	119302.25
830.753	118706.25
831.004	117692.25
831.254	117137.25
831.504	116940.25
831.754	116839.25
832.004	116253.25
832.254	116453.25
832.504	116136.25
832.754	116419.25
833.004	116180.25
833.254	115777.25
833.504	115414.25
833.754	115227.25
834.003	114737.25
834.253	114161.25
834.503	113506.25
834.752	112667.25
835.002	111902.25
835.252	111522.25
835.501	110932.25
835.75	110630.25
836	110244.25
836.249	109917.25
836.499	109852.25
836.748	109723.25
836.997	109640.25
837.246	109681.25
837.495	109783.25
837.744	110060.25
837.993	109647.25
838.242	109368.25
838.491	109010.25
838.74	108281.25
838.989	107588.25
839.238	107012.25
839.487	106327.25
839.736	105971.25
839.984	105415.25
840.233	104881.25
840.482	104443.25
840.73	104028.25
840.979	103514.25
841.227	103476.25
841.476	102813.25
841.724	102611.25
841.972	102371.25
842.221	102023.25
842.469	101616.25
842.717	101267.25
842.965	100816.25
843.213	100644.25
843.461	99750.25
843.71	99319.25
843.958	99170.25
844.205	98942.25
844.453	98478.25
844.701	98600.25
844.949	98437.25
845.197	98169.25
845.445	98219.25
845.692	98506.25
845.94	98209.25
846.188	98166.25
846.435	98070.25
846.683	97629.25
846.93	97295.25
847.178	96775.25
847.425	95851.25
847.672	95166.25
847.92	94559.25
848.167	93701.25
848.414	92511.25
848.661	91942.25
848.908	91413.25
849.155	91004.25
849.402	90960.25
849.649	90645.25
849.896	90997.25
850.143	91258.25
850.39	91607.25
850.637	91371.25
850.884	91441.25
851.131	91488.25
851.377	91097.25
851.624	90946.25
851.87	90321.25
852.117	89683.25
852.364	89486.25
852.61	88880.25
852.856	88647.25
853.103	88216.25
853.349	87783.25
853.595	87569.25
853.842	87046.25
854.088	87133.25
854.334	87048.25
854.58	86862.25
854.826	86613.25
855.072	85965.25
855.318	85453.25
855.564	84592.25
855.81	83884.25
856.056	82994.25
856.302	82179.25
856.548	82015.25
856.793	81549.25
857.039	81149.25
857.285	80746.25
857.53	80929.25
857.776	80835.25
858.021	81208.25
858.267	81538.25
858.512	81524.25
858.758	81594.25
859.003	81662.25
859.248	81578.25
859.493	81219.25
859.739	81201.25
859.984	81036.25
860.229	80505.25
860.474	80045.25
860.719	79567.25
860.964	78983.25
861.209	78691.25
861.454	77995.25
861.699	77445.25
861.943	77133.25
862.188	76873.25
862.433	76401.25
862.678	75987.25
862.922	76087.25
863.167	75747.25
863.411	75509.25
863.656	75172.25
863.9	75195.25
864.145	74975.25
864.389	74585.25
864.634	74237.25
864.878	74062.25
865.122	73769.25
865.366	73463.25
865.61	73180.25
865.855	72957.25
866.099	72802.25
866.343	72608.25
866.587	72443.25
866.831	72279.25
867.074	72285.25
867.318	72207.25
867.562	71995.25
867.806	72073.25
868.05	72170.25
868.293	71960.25
868.537	71687.25
868.78	71317.25
869.024	70865.25
869.267	70462.25
869.511	69835.25
869.754	69606.25
869.998	68836.25
870.241	68106.25
870.484	67686.25
870.728	67407.25
870.971	67005.25
871.214	66583.25
871.457	66341.25
871.7	66237.25
871.943	66250.25
872.186	66371.25
872.429	66490.25
872.672	66444.25
872.915	66165.25
873.158	66045.25
873.4	66179.25
873.643	65968.25
873.886	65724.25
874.128	65433.25
874.371	65298.25
874.613	65276.25
874.856	64789.25
875.098	64475.25
875.341	64462.25
875.583	64347.25
875.825	64071.25
876.068	63824.25
876.31	63366.25
876.552	62591.25
876.794	62216.25
877.036	61768.25
877.278	61287.25
877.52	61012.25
877.762	60686.25
878.004	60465.25
878.246	60514.25
878.488	60454.25
878.73	60287.25
878.972	60119.25
879.213	60307.25
879.455	60097.25
879.697	60006.25
879.938	59587.25
880.18	59185.25
880.421	58922.25
880.663	58768.25
880.904	58697.25
881.145	58771.25
881.387	58629.25
881.628	58357.25
881.869	58421.25
882.11	58559.25
882.352	58250.25
882.593	57887.25
882.834	58110.25
883.075	57785.25
883.316	57605.25
883.557	57462.25
883.797	57156.25
884.038	56705.25
884.279	56264.25
884.52	55568.25
884.761	55133.25
885.001	54773.25
885.242	54164.25
885.482	53924.25
885.723	53484.25
885.963	53388.25
886.204	53196.25
886.444	52924.25
886.685	52885.25
886.925	52587.25
887.165	52342.25
887.405	52045.25
887.646	51806.25
887.886	51982.25
888.126	51697.25
888.366	51798.25
888.606	51848.25
888.846	51943.25
889.086	51914.25
889.326	52042.25
889.565	51864.25
889.805	51669.25
890.045	51546.25
890.285	51423.25
890.524	51365.25
890.764	51266.25
891.003	50764.25
891.243	50086.25
891.482	49742.25
891.722	49413.25
891.961	48948.25
892.201	48839.25
892.44	48490.25
892.679	48121.25
892.918	47872.25
893.158	47779.25
893.397	47673.25
893.636	47553.25
893.875	47250.25
894.114	47057.25
894.353	46964.25
894.592	46806.25
894.831	46511.25
895.069	46130.25
895.308	46102.25
895.547	45706.25
895.786	45638.25
896.024	45424.25
896.263	45385.25
896.501	45151.25
896.74	45272.25
896.978	45215.25
897.217	44877.25
897.455	44894.25
897.694	44786.25
897.932	44629.25
898.17	44187.25
898.408	44247.25
898.646	44042.25
898.885	43904.25
899.123	43581.25
899.361	43350.25
899.599	43053.25
899.837	42772.25
900.075	42565.25
900.312	42298.25
900.55	41827.25
900.788	41444.25
901.026	41125.25
901.263	40686.25
901.501	40513.25
901.739	40100.25
901.976	40073.25
902.214	39772.25
902.451	39681.25
902.689	39686.25
902.926	39423.25
903.163	39347.25
903.401	39414.25
903.638	39378.25
903.875	39345.25
904.112	39238.25
904.349	39222.25
904.586	39090.25
904.823	38899.25
905.06	38601.25
905.297	38459.25
905.534	38145.25
905.771	37831.25
906.008	37561.25
906.245	37289.25
906.481	37086.25
906.718	37059.25
906.955	36775.25
907.191	36757.25
907.428	36330.25
907.664	36451.25
907.901	36258.25
908.137	36071.25
908.374	35911.25
908.61	35753.25
908.846	35645.25
909.083	35505.25
909.319	35105.25
909.555	35008.25
909.791	34605.25
910.027	34313.25
910.263	34053.25
910.499	33866.25
910.735	33426.25
910.971	33243.25
911.207	33154.25
911.443	33019.25
911.678	32720.25
911.914	32699.25
912.15	32553.25
912.385	32551.25
912.621	32378.25
912.857	32359.25
913.092	32330.25
913.328	32296.25
913.563	32196.25
913.798	32162.25
914.034	32153.25
914.269	31985.25
914.504	31880.25
914.739	31702.25
914.975	31534.25
915.21	31358.25
915.445	31160.25
915.68	30851.25
915.915	30522.25
916.15	30163.25
916.384	29897.25
916.619	29478.25
916.854	29300.25
917.089	29114.25
917.324	29121.25
917.558	28763.25
917.793	28623.25
918.028	28334.25
918.262	28319.25
918.497	28218.25
918.731	28258.25
918.965	28314.25
919.2	28134.25
919.434	28179.25
919.668	28101.25
919.903	27978.25
920.137	27857.25
920.371	27523.25
920.605	27387.25
920.839	27296.25
921.073	27047.25
921.307	26891.25
921.541	26678.25
921.775	26512.25
922.009	26381.25
922.243	26317.25
922.476	26245.25
922.71	26256.25
922.944	26198.25
923.177	26173.25
923.411	26040.25
923.644	26049.25
923.878	25783.25
924.111	25797.25
924.345	25755.25
924.578	25495.25
924.811	25436.25
925.045	25255.25
925.278	25032.25
925.511	24831.25
925.744	24700.25
925.977	24400.25
926.21	24343.25
926.443	24087.25
926.676	23847.25
926.909	23727.25
927.142	23522.25
927.375	23289.25
927.608	23292.25
927.841	23055.25
928.073	22884.25
928.306	22831.25
928.539	22778.25
928.771	22818.25
929.004	22816.25
929.236	22784.25
929.469	22734.25
929.701	22766.25
929.933	22815.25
930.166	22744.25
930.398	22660.25
930.63	22603.25
930.862	22511.25
931.094	22287.25
931.327	22269.25
931.559	22179.25
931.791	21904.25
932.023	21799.25
932.255	21590.25
932.486	21491.25
932.718	21187.25
932.95	21057.25
933.182	21028.25
933.413	20984.25
933.645	20807.25
933.877	20703.25
934.108	20665.25
934.34	20514.25
934.571	20438.25
934.803	20397.25
935.034	20221.25
935.265	20201.25
935.497	20156.25
935.728	20092.25
935.959	19978.25
936.19	19847.25
936.422	19728.25
936.653	19709.25
936.884	19592.25
937.115	19371.25
937.346	19315.25
937.577	19271.25
937.807	18965.25
938.038	18970.25
938.269	18918.25
938.5	18865.25
938.73	18831.25
938.961	18857.25
939.192	18713.25
939.422	18713.25
939.653	18686.25
939.883	18645.25
940.114	18576.25
940.344	18428.25
940.574	18422.25
940.805	18315.25
941.035	18126.25
941.265	18073.25
941.495	17896.25
941.726	17785.25
941.956	17610.25
942.186	17585.25
942.416	17309.25
942.646	17293.25
942.876	17057.25
943.105	16825.25
943.335	16814.25
943.565	16717.25
943.795	16555.25
944.024	16391.25
944.254	16387.25
944.484	16329.25
944.713	16219.25
944.943	16133.25
945.172	15930.25
945.402	16008.25
945.631	15951.25
945.86	15874.25
946.09	15822.25
946.319	15848.25
946.548	15760.25
946.777	15732.25
947.006	15647.25
947.235	15652.25
947.465	15613.25
947.694	15500.25
947.922	15302.25
948.151	15236.25
948.38	15024.25
948.609	14973.25
948.838	14868.25
949.067	14802.25
949.295	14686.25
949.524	14596.25
949.752	14428.25
949.981	14439.25
950.21	14272.25
950.438	14244.25
950.666	14111.25
950.895	14017.25
951.123	13875.25
951.351	13786.25
951.58	13778.25
951.808	13749.25
952.036	13609.25
952.264	13525.25
952.492	13424.25
952.72	13376.25
952.948	13292.25
953.176	13243.25
953.404	13095.25
953.632	12880.25
953.86	12949.25
954.088	12784.25
954.315	12658.25
954.543	12564.25
954.771	12542.25
954.998	12464.25
955.226	12466.25
955.453	12368.25
955.681	12369.25
955.908	12280.25
956.135	12278.25
956.363	12169.25
956.59	12129.25
956.817	12130.25
957.045	12038.25
957.272	12036.25
957.499	12004.25
957.726	12015.25
957.953	11896.25
958.18	11875.25
958.407	11795.25
958.634	11663.25
958.861	11626.25
959.087	11534.25
959.314	11479.25
959.541	11337.25
959.767	11336.25
959.994	11142.25
960.221	11072.25
960.447	10979.25
960.674	10999.25
960.9	10775.25
961.127	10724.25
961.353	10715.25
961.579	10596.25
961.806	10536.25
962.032	10511.25
962.258	10506.25
962.484	10369.25
962.71	10386.25
962.936	10270.25
963.162	10352.25
963.388	10218.25
963.614	10228.25
963.84	10219.25
964.066	10147.25
964.292	10092.25
964.518	10109.25
964.743	9999.25
964.969	10021.25
965.195	9917.25
965.42	9897.25
965.646	9787.25
965.871	9766.25
966.097	9763.25
966.322	9689.25
966.547	9638.25
966.773	9528.25
966.998	9486.25
967.223	9477.25
967.448	9401.25
967.674	9366.25
967.899	9266.25
968.124	9243.25
968.349	9213.25
968.574	9153.25
968.799	9115.25
969.024	9040.25
969.248	8999.25
969.473	8880.25
969.698	8888.25
969.923	8781.25
970.147	8724.25
970.372	8650.25
970.596	8588.25
970.821	8569.25
971.046	8490.25
971.27	8487.25
971.494	8377.25
971.719	8343.25
971.943	8279.25
972.167	8228.25
972.392	8154.25
972.616	8115.25
972.84	8102.25
973.064	8049.25
973.288	8010.25
973.512	8022.25
973.736	7940.25
973.96	7941.25
974.184	7877.25
974.408	7886.25
974.631	7805.25
974.855	7826.25
975.079	7746.25
975.303	7716.25
975.526	7746.25
975.75	7623.25
975.973	7655.25
976.197	7650.25
976.42	7583.25
976.644	7493.25
976.867	7442.25
977.09	7400.25
977.313	7289.25
977.537	7364.25
977.76	7238.25
977.983	7164.25
978.206	7170.25
978.429	7111.25
978.652	7075.25
978.875	7023.25
979.098	6986.25
979.321	6893.25
979.544	6856.25
979.767	6763.25
979.989	6739.25
980.212	6698.25
980.435	6689.25
980.657	6633.25
980.88	6615.25
981.102	6606.25
981.325	6573.25
981.547	6478.25
981.77	6493.25
981.992	6465.25
982.214	6397.25
982.437	6397.25
982.659	6354.25
982.881	6356.25
983.103	6260.25
983.325	6211.25
983.547	6253.25
983.769	6235.25
983.991	6120.25
984.213	6101.25
984.435	6069.25
984.657	6046.25
984.879	6039.25
985.1	6006.25
985.322	5948.25
985.544	5939.25
985.765	5859.25
985.987	5875.25
986.208	5818.25
986.43	5845.25
986.651	5813.25
986.873	5714.25
987.094	5720.25
987.315	5654.25
987.536	5624.25
987.758	5611.25
987.979	5524.25
988.2	5530.25
988.421	5475.25
988.642	5425.25
988.863	5372.25
989.084	5386.25
989.305	5322.25
989.526	5251.25
989.747	5273.25
989.967	5234.25
990.188	5188.25
990.409	5072.25
990.629	5103.25
990.85	5042.25
991.071	5038.25
991.291	5012.25
991.512	4951.25
991.732	4912.25
991.952	4884.25
992.173	4867.25
992.393	4847.25
992.613	4851.25
992.834	4839.25
993.054	4823.25
993.274	4823.25
993.494	4752.25
993.714	4726.25
993.934	4755.25
994.154	4720.25
994.374	4721.25
994.594	4678.25
994.813	4652.25
995.033	4646.25
995.253	4628.25
995.473	4563.25
995.692	4559.25
995.912	4495.25
996.131	4488.25
996.351	4433.25
996.57	4391.25
996.79	4401.25
997.009	4274.25
997.228	4303.25
997.448	4228.25
997.667	4231.25
997.886	4140.25
998.105	4157.25
998.325	4126.25
998.544	4087.25
998.763	4042.25
998.982	4020.25
999.201	3995.25
999.419	3938.25
999.638	3945.25
999.857	3896.25
1000.076	3935.25
1000.295	3868.25
1000.513	3900.25
1000.732	3867.25
1000.95	3800.25
1001.169	3821.25
1001.388	3789.25
1001.606	3769.25
1001.824	3747.25
1002.043	3727.25
1002.261	3677.25
1002.479	3686.25
1002.698	3642.25
1002.916	3615.25
1003.134	3650.25
1003.352	3626.25
1003.57	3573.25
1003.788	3592.25
1004.006	3535.25
1004.224	3515.25
1004.442	3500.25
1004.66	3456.25
1004.878	3461.25
1005.095	3414.25
1005.313	3427.25
1005.531	3412.25
1005.748	3380.25
1005.966	3409.25
1006.184	3354.25
1006.401	3329.25
1006.618	3311.25
1006.836	3302.25
1007.053	3270.25
1007.271	3263.25
1007.488	3262.25
1007.705	3221.25
1007.922	3206.25
1008.139	3188.25
1008.357	3183.25
1008.574	3141.25
1008.791	3158.25
1009.008	3173.25
1009.225	3140.25
1009.441	3123.25
1009.658	3083.25
1009.875	3127.25
1010.092	3087.25
1010.309	3042.25
1010.525	3022.25
1010.742	3006.25
1010.958	2937.25
1011.175	2934.25
1011.391	2929.25
1011.608	2896.25
1011.824	2835.25
1012.041	2825.25
1012.257	2822.25
1012.473	2808.25
1012.689	2776.25
1012.906	2733.25
1013.122	2763.25
1013.338	2748.25
1013.554	2733.25
1013.77	2698.25
1013.986	2735.25
1014.202	2750.25
1014.418	2714.25
1014.634	2700.25
1014.849	2744.25
1015.065	2740.25
1015.281	2737.25
1015.496	2727.25
1015.712	2705.25
1015.928	2628.25
1016.143	2610.25
1016.359	2638.25
1016.574	2582.25
1016.79	2535.25
1017.005	2519.25
1017.22	2480.25
1017.435	2444.25
1017.651	2421.25
1017.866	2371.25
1018.081	2352.25
1018.296	2316.25
1018.511	2292.25
1018.726	2266.25
1018.941	2238.25
1019.156	2181.25
1019.371	2190.25
1019.586	2178.25
1019.801	2165.25
1020.015	2148.25
1020.23	2138.25
1020.445	2113.25
1020.659	2088.25
1020.874	2081.25
1021.088	2044.25
1021.303	2024.25
1021.517	2035.25
1021.732	2008.25
1021.946	1965.25
1022.16	2004.25
1022.375	1955.25
1022.589	1938.25
1022.803	1872.25
1023.017	1866.25
1023.231	1841.25
1023.445	1817.25
1023.659	1767.25
1023.873	1747.25
1024.087	1717.25
1024.301	1666.25
1024.515	1660.25
1024.729	1629.25
1024.942	1598.25
1025.156	1570.25
1025.37	1533.25
1025.583	1526.25
1025.797	1478.25
1026.01	1454.25
1026.224	1457.25
1026.437	1392.25
1026.651	1336.25
1026.864	1312.25
1027.077	1294.25
1027.291	1257.25
1027.504	1222.25
1027.717	1201.25
1027.93	1139.25
1028.143	1116.25
1028.356	1090.25
1028.569	1021.25
1028.782	961.25
1028.995	-0.75
1029.208	-3.75
1029.421	-2.75
1029.634	-1.75
