Data from QEP037381__636__16-14-00-289.txt Node

Date: Mon Mar 14 16:14:00 EDT 2022
User: dcclab
Spectrometer: QEP03738
Trigger mode: 4
Integration Time (sec): 1.000000E0
Scans to average: 1
Electric dark correction enabled: true
Nonlinearity correction enabled: false
Boxcar width: 0
XAxis mode: Wavelengths
Number of Pixels in Spectrum: 1044
>>>>>Begin Spectral Data<<<<<
783.959	12.88
784.218	-0.12
784.476	-4.12
784.734	-4.12
784.992	203.88
785.251	184.88
785.509	193.88
785.767	205.88
786.025	189.88
786.283	204.88
786.541	216.88
786.798	204.88
787.056	219.88
787.314	201.88
787.572	214.88
787.83	206.88
788.087	220.88
788.345	225.88
788.602	217.88
788.86	216.88
789.117	219.88
789.375	221.88
789.632	227.88
789.89	222.88
790.147	251.88
790.404	239.88
790.661	257.88
790.919	256.88
791.176	274.88
791.433	260.88
791.69	277.88
791.947	279.88
792.204	285.88
792.461	295.88
792.718	298.88
792.974	316.88
793.231	328.88
793.488	352.88
793.745	360.88
794.001	365.88
794.258	404.88
794.514	406.88
794.771	439.88
795.027	443.88
795.284	483.88
795.54	507.88
795.797	555.88
796.053	593.88
796.309	637.88
796.565	723.88
796.822	815.88
797.078	928.88
797.334	1068.88
797.59	1316.88
797.846	1626.88
798.102	2151.88
798.358	2917.88
798.614	4192.88
798.869	6123.88
799.125	9173.88
799.381	13400.88
799.637	19093.88
799.892	25954.88
800.148	33663.88
800.403	41138.88
800.659	47338.88
800.914	52276.88
801.17	55572.88
801.425	57907.88
801.68	59496.88
801.936	60893.88
802.191	62082.88
802.446	63469.88
802.701	64786.88
802.957	65819.88
803.212	67276.88
803.467	68607.88
803.722	69831.88
803.977	71218.88
804.232	72563.88
804.486	73937.88
804.741	75326.88
804.996	76644.88
805.251	78009.88
805.505	79300.88
805.76	80505.88
806.015	81552.88
806.269	82463.88
806.524	83610.88
806.778	84398.88
807.033	84946.88
807.287	85830.88
807.541	86978.88
807.796	87935.88
808.05	88967.88
808.304	89832.88
808.558	90168.88
808.812	90748.88
809.066	91518.88
809.32	91846.88
809.574	92852.88
809.828	93440.88
810.082	94113.88
810.336	94604.88
810.59	95607.88
810.844	96525.88
811.097	97577.88
811.351	98953.88
811.605	100593.88
811.858	101886.88
812.112	103671.88
812.365	105491.88
812.619	106912.88
812.872	108373.88
813.126	109552.88
813.379	110912.88
813.632	112426.88
813.885	113828.88
814.139	115458.88
814.392	117155.88
814.645	118598.88
814.898	121015.88
815.151	123315.88
815.404	125388.88
815.657	127042.88
815.91	129038.88
816.163	130510.88
816.416	131565.88
816.668	132199.88
816.921	133157.88
817.174	133360.88
817.426	133476.88
817.679	133096.88
817.931	133077.88
818.184	132997.88
818.436	132756.88
818.689	132970.88
818.941	133143.88
819.194	133694.88
819.446	134151.88
819.698	134521.88
819.95	134977.88
820.202	135261.88
820.455	135965.88
820.707	136216.88
820.959	136051.88
821.211	136098.88
821.462	136060.88
821.714	135365.88
821.966	134631.88
822.218	134347.88
822.47	133319.88
822.722	132881.88
822.973	132370.88
823.225	131949.88
823.476	131581.88
823.728	131618.88
823.979	131545.88
824.231	131402.88
824.482	131489.88
824.734	131640.88
824.985	131438.88
825.236	131443.88
825.487	130561.88
825.739	130218.88
825.99	129641.88
826.241	129443.88
826.492	128665.88
826.743	127907.88
826.994	127242.88
827.245	126804.88
827.496	126067.88
827.747	126023.88
827.997	125948.88
828.248	126460.88
828.499	126331.88
828.75	126271.88
829	126280.88
829.251	125848.88
829.501	125492.88
829.752	124939.88
830.002	124278.88
830.253	123557.88
830.503	122733.88
830.753	121985.88
831.004	121212.88
831.254	120554.88
831.504	120229.88
831.754	119970.88
832.004	119644.88
832.254	119798.88
832.504	119819.88
832.754	119646.88
833.004	119412.88
833.254	118973.88
833.504	118740.88
833.754	118340.88
834.003	117982.88
834.253	117445.88
834.503	116525.88
834.752	116058.88
835.002	115352.88
835.252	114396.88
835.501	113978.88
835.75	113385.88
836	113486.88
836.249	113210.88
836.499	113058.88
836.748	112747.88
836.997	112616.88
837.246	112602.88
837.495	112846.88
837.744	112847.88
837.993	112726.88
838.242	112659.88
838.491	112077.88
838.74	111229.88
838.989	110330.88
839.238	109897.88
839.487	109279.88
839.736	108797.88
839.984	108355.88
840.233	107698.88
840.482	107329.88
840.73	106493.88
840.979	106337.88
841.227	105807.88
841.476	105404.88
841.724	105334.88
841.972	105267.88
842.221	104700.88
842.469	104239.88
842.717	103785.88
842.965	103343.88
843.213	103331.88
843.461	102812.88
843.71	101914.88
843.958	101643.88
844.205	101737.88
844.453	101746.88
844.701	101315.88
844.949	101099.88
845.197	100782.88
845.445	100829.88
845.692	100909.88
845.94	100892.88
846.188	100923.88
846.435	100523.88
846.683	100152.88
846.93	99886.88
847.178	99350.88
847.425	98454.88
847.672	97712.88
847.92	96951.88
848.167	95944.88
848.414	94934.88
848.661	94281.88
848.908	93828.88
849.155	93296.88
849.402	93291.88
849.649	93024.88
849.896	93372.88
850.143	93604.88
850.39	93876.88
850.637	93876.88
850.884	94118.88
851.131	93592.88
851.377	93457.88
851.624	93152.88
851.87	92507.88
852.117	92094.88
852.364	91476.88
852.61	91204.88
852.856	90991.88
853.103	90242.88
853.349	90377.88
853.595	89960.88
853.842	89199.88
854.088	89062.88
854.334	89273.88
854.58	89138.88
854.826	88769.88
855.072	88269.88
855.318	87436.88
855.564	86740.88
855.81	85901.88
856.056	85299.88
856.302	84465.88
856.548	84014.88
856.793	83428.88
857.039	83184.88
857.285	82836.88
857.53	82882.88
857.776	83072.88
858.021	83400.88
858.267	83543.88
858.512	83721.88
858.758	83583.88
859.003	83761.88
859.248	83586.88
859.493	83543.88
859.739	83125.88
859.984	82790.88
860.229	82393.88
860.474	82025.88
860.719	81712.88
860.964	81055.88
861.209	80465.88
861.454	79880.88
861.699	79439.88
861.943	79130.88
862.188	78695.88
862.433	78469.88
862.678	78099.88
862.922	77932.88
863.167	77654.88
863.411	77453.88
863.656	77111.88
863.9	77013.88
864.145	76949.88
864.389	76481.88
864.634	76228.88
864.878	75903.88
865.122	75466.88
865.366	75258.88
865.61	74789.88
865.855	75023.88
866.099	74734.88
866.343	74544.88
866.587	74153.88
866.831	74205.88
867.074	74164.88
867.318	73907.88
867.562	74032.88
867.806	73768.88
868.05	73914.88
868.293	73435.88
868.537	73290.88
868.78	73146.88
869.024	72717.88
869.267	72123.88
869.511	71600.88
869.754	71110.88
869.998	70457.88
870.241	69647.88
870.484	69428.88
870.728	69015.88
870.971	68475.88
871.214	68056.88
871.457	68061.88
871.7	68087.88
871.943	67917.88
872.186	68036.88
872.429	68096.88
872.672	68017.88
872.915	67785.88
873.158	67601.88
873.4	67788.88
873.643	67503.88
873.886	67413.88
874.128	67218.88
874.371	66895.88
874.613	66581.88
874.856	66394.88
875.098	66167.88
875.341	66075.88
875.583	65999.88
875.825	65531.88
876.068	65397.88
876.31	64814.88
876.552	64164.88
876.794	63794.88
877.036	63130.88
877.278	62873.88
877.52	62548.88
877.762	62338.88
878.004	62087.88
878.246	61748.88
878.488	61850.88
878.73	61721.88
878.972	61623.88
879.213	61491.88
879.455	61372.88
879.697	61199.88
879.938	60954.88
880.18	60769.88
880.421	60494.88
880.663	60220.88
880.904	60085.88
881.145	60031.88
881.387	60020.88
881.628	59886.88
881.869	59756.88
882.11	59845.88
882.352	59701.88
882.593	59489.88
882.834	59536.88
883.075	59323.88
883.316	59168.88
883.557	58919.88
883.797	58446.88
884.038	58079.88
884.279	57534.88
884.52	56895.88
884.761	56586.88
885.001	55903.88
885.242	55357.88
885.482	55009.88
885.723	54877.88
885.963	54690.88
886.204	54489.88
886.444	54386.88
886.685	54209.88
886.925	53757.88
887.165	53502.88
887.405	53291.88
887.646	53116.88
887.886	52997.88
888.126	52835.88
888.366	52940.88
888.606	52842.88
888.846	53084.88
889.086	53347.88
889.326	53152.88
889.565	53192.88
889.805	53055.88
890.045	52769.88
890.285	52690.88
890.524	52586.88
890.764	52229.88
891.003	51880.88
891.243	51134.88
891.482	50815.88
891.722	50449.88
891.961	50120.88
892.201	49839.88
892.44	49633.88
892.679	49340.88
892.918	48926.88
893.158	48890.88
893.397	48824.88
893.636	48688.88
893.875	48388.88
894.114	48289.88
894.353	48039.88
894.592	47806.88
894.831	47617.88
895.069	47290.88
895.308	47077.88
895.547	46620.88
895.786	46532.88
896.024	46519.88
896.263	46423.88
896.501	46250.88
896.74	46103.88
896.978	46143.88
897.217	45949.88
897.455	45788.88
897.694	45753.88
897.932	45696.88
898.17	45486.88
898.408	45105.88
898.646	44870.88
898.885	44713.88
899.123	44681.88
899.361	44293.88
899.599	44010.88
899.837	43789.88
900.075	43587.88
900.312	43227.88
900.55	42859.88
900.788	42406.88
901.026	42043.88
901.263	41669.88
901.501	41390.88
901.739	41152.88
901.976	40975.88
902.214	40749.88
902.451	40596.88
902.689	40385.88
902.926	40389.88
903.163	40311.88
903.401	40353.88
903.638	40427.88
903.875	40321.88
904.112	40287.88
904.349	40012.88
904.586	39863.88
904.823	39901.88
905.06	39634.88
905.297	39218.88
905.534	39032.88
905.771	38624.88
906.008	38487.88
906.245	38158.88
906.481	37980.88
906.718	37790.88
906.955	37657.88
907.191	37614.88
907.428	37240.88
907.664	37119.88
907.901	36952.88
908.137	36864.88
908.374	36812.88
908.61	36484.88
908.846	36507.88
909.083	36137.88
909.319	35908.88
909.555	35807.88
909.791	35438.88
910.027	34958.88
910.263	34895.88
910.499	34691.88
910.735	34296.88
910.971	34094.88
911.207	33867.88
911.443	33671.88
911.678	33656.88
911.914	33352.88
912.15	33330.88
912.385	33219.88
912.621	33156.88
912.857	33206.88
913.092	33043.88
913.328	32966.88
913.563	32903.88
913.798	32938.88
914.034	32819.88
914.269	32680.88
914.504	32656.88
914.739	32512.88
914.975	32368.88
915.21	32062.88
915.445	31928.88
915.68	31624.88
915.915	31311.88
916.15	30733.88
916.384	30562.88
916.619	30199.88
916.854	29945.88
917.089	29744.88
917.324	29603.88
917.558	29495.88
917.793	29171.88
918.028	29103.88
918.262	29192.88
918.497	28986.88
918.731	28903.88
918.965	28862.88
919.2	28816.88
919.434	28803.88
919.668	28653.88
919.903	28450.88
920.137	28472.88
920.371	28272.88
920.605	28115.88
920.839	27883.88
921.073	27662.88
921.307	27507.88
921.541	27254.88
921.775	27138.88
922.009	26964.88
922.243	26958.88
922.476	26944.88
922.71	26910.88
922.944	26822.88
923.177	26686.88
923.411	26559.88
923.644	26520.88
923.878	26466.88
924.111	26372.88
924.345	26262.88
924.578	26194.88
924.811	26086.88
925.045	25825.88
925.278	25600.88
925.511	25408.88
925.744	25114.88
925.977	24966.88
926.21	24711.88
926.443	24697.88
926.676	24389.88
926.909	24171.88
927.142	24063.88
927.375	23844.88
927.608	23668.88
927.841	23453.88
928.073	23452.88
928.306	23339.88
928.539	23332.88
928.771	23393.88
929.004	23268.88
929.236	23211.88
929.469	23316.88
929.701	23227.88
929.933	23228.88
930.166	23186.88
930.398	23115.88
930.63	23167.88
930.862	23029.88
931.094	22890.88
931.327	22633.88
931.559	22558.88
931.791	22418.88
932.023	22294.88
932.255	22073.88
932.486	21943.88
932.718	21758.88
932.95	21630.88
933.182	21514.88
933.413	21421.88
933.645	21240.88
933.877	21155.88
934.108	21070.88
934.34	21036.88
934.571	20902.88
934.803	20815.88
935.034	20718.88
935.265	20639.88
935.497	20565.88
935.728	20505.88
935.959	20429.88
936.19	20242.88
936.422	20226.88
936.653	20033.88
936.884	20028.88
937.115	19784.88
937.346	19739.88
937.577	19513.88
937.807	19418.88
938.038	19316.88
938.269	19260.88
938.5	19144.88
938.73	19209.88
938.961	19177.88
939.192	19089.88
939.422	19157.88
939.653	19025.88
939.883	18992.88
940.114	18942.88
940.344	18870.88
940.574	18819.88
940.805	18683.88
941.035	18582.88
941.265	18456.88
941.495	18244.88
941.726	18108.88
941.956	17927.88
942.186	17845.88
942.416	17774.88
942.646	17539.88
942.876	17437.88
943.105	17341.88
943.335	17084.88
943.565	17149.88
943.795	16943.88
944.024	16803.88
944.254	16723.88
944.484	16513.88
944.713	16557.88
944.943	16465.88
945.172	16291.88
945.402	16327.88
945.631	16253.88
945.86	16202.88
946.09	16177.88
946.319	16184.88
946.548	16116.88
946.777	16042.88
947.006	16024.88
947.235	15897.88
947.465	15894.88
947.694	15781.88
947.922	15623.88
948.151	15511.88
948.38	15294.88
948.609	15286.88
948.838	15090.88
949.067	15095.88
949.295	14934.88
949.524	14874.88
949.752	14765.88
949.981	14646.88
950.21	14561.88
950.438	14495.88
950.666	14310.88
950.895	14238.88
951.123	14165.88
951.351	14121.88
951.58	13988.88
951.808	13875.88
952.036	13845.88
952.264	13811.88
952.492	13782.88
952.72	13661.88
952.948	13601.88
953.176	13430.88
953.404	13338.88
953.632	13209.88
953.86	13162.88
954.088	13045.88
954.315	12914.88
954.543	12847.88
954.771	12778.88
954.998	12803.88
955.226	12557.88
955.453	12587.88
955.681	12585.88
955.908	12459.88
956.135	12409.88
956.363	12419.88
956.59	12445.88
956.817	12430.88
957.045	12365.88
957.272	12307.88
957.499	12172.88
957.726	12215.88
957.953	12082.88
958.18	12049.88
958.407	12004.88
958.634	11988.88
958.861	11879.88
959.087	11739.88
959.314	11689.88
959.541	11602.88
959.767	11538.88
959.994	11429.88
960.221	11293.88
960.447	11252.88
960.674	11129.88
960.9	10992.88
961.127	10903.88
961.353	10892.88
961.579	10806.88
961.806	10737.88
962.032	10703.88
962.258	10652.88
962.484	10621.88
962.71	10553.88
962.936	10484.88
963.162	10450.88
963.388	10441.88
963.614	10470.88
963.84	10425.88
964.066	10372.88
964.292	10326.88
964.518	10279.88
964.743	10185.88
964.969	10163.88
965.195	10134.88
965.42	10183.88
965.646	9984.88
965.871	9868.88
966.097	9876.88
966.322	9852.88
966.547	9744.88
966.773	9761.88
966.998	9751.88
967.223	9609.88
967.448	9530.88
967.674	9519.88
967.899	9455.88
968.124	9287.88
968.349	9355.88
968.574	9317.88
968.799	9240.88
969.024	9195.88
969.248	9092.88
969.473	9145.88
969.698	9010.88
969.923	8963.88
970.147	8895.88
970.372	8784.88
970.596	8783.88
970.821	8746.88
971.046	8679.88
971.27	8582.88
971.494	8542.88
971.719	8499.88
971.943	8448.88
972.167	8423.88
972.392	8326.88
972.616	8304.88
972.84	8226.88
973.064	8216.88
973.288	8145.88
973.512	8113.88
973.736	8079.88
973.96	8035.88
974.184	8063.88
974.408	8021.88
974.631	7969.88
974.855	7937.88
975.079	7884.88
975.303	7852.88
975.526	7832.88
975.75	7828.88
975.973	7761.88
976.197	7733.88
976.42	7700.88
976.644	7624.88
976.867	7560.88
977.09	7545.88
977.313	7530.88
977.537	7427.88
977.76	7413.88
977.983	7311.88
978.206	7294.88
978.429	7201.88
978.652	7178.88
978.875	7089.88
979.098	7092.88
979.321	6985.88
979.544	6969.88
979.767	6971.88
979.989	6880.88
980.212	6779.88
980.435	6853.88
980.657	6763.88
980.88	6745.88
981.102	6733.88
981.325	6666.88
981.547	6619.88
981.77	6626.88
981.992	6585.88
982.214	6485.88
982.437	6487.88
982.659	6455.88
982.881	6373.88
983.103	6405.88
983.325	6377.88
983.547	6352.88
983.769	6322.88
983.991	6285.88
984.213	6314.88
984.435	6255.88
984.657	6156.88
984.879	6163.88
985.1	6075.88
985.322	6089.88
985.544	5984.88
985.765	5952.88
985.987	5964.88
986.208	5941.88
986.43	5954.88
986.651	5893.88
986.873	5849.88
987.094	5789.88
987.315	5726.88
987.536	5676.88
987.758	5690.88
987.979	5586.88
988.2	5585.88
988.421	5515.88
988.642	5547.88
988.863	5468.88
989.084	5425.88
989.305	5406.88
989.526	5367.88
989.747	5315.88
989.967	5308.88
990.188	5266.88
990.409	5265.88
990.629	5192.88
990.85	5130.88
991.071	5103.88
991.291	5046.88
991.512	5065.88
991.732	5022.88
991.952	4993.88
992.173	4941.88
992.393	4978.88
992.613	4923.88
992.834	4925.88
993.054	4857.88
993.274	4875.88
993.494	4846.88
993.714	4833.88
993.934	4783.88
994.154	4762.88
994.374	4762.88
994.594	4727.88
994.813	4725.88
995.033	4685.88
995.253	4639.88
995.473	4628.88
995.692	4634.88
995.912	4566.88
996.131	4517.88
996.351	4540.88
996.57	4450.88
996.79	4442.88
997.009	4436.88
997.228	4380.88
997.448	4270.88
997.667	4269.88
997.886	4225.88
998.105	4193.88
998.325	4168.88
998.544	4115.88
998.763	4069.88
998.982	4082.88
999.201	4066.88
999.419	4012.88
999.638	4003.88
999.857	3980.88
1000.076	3960.88
1000.295	3895.88
1000.513	3949.88
1000.732	3894.88
1000.95	3891.88
1001.169	3810.88
1001.388	3846.88
1001.606	3831.88
1001.824	3766.88
1002.043	3813.88
1002.261	3788.88
1002.479	3735.88
1002.698	3738.88
1002.916	3739.88
1003.134	3658.88
1003.352	3660.88
1003.57	3653.88
1003.788	3609.88
1004.006	3588.88
1004.224	3557.88
1004.442	3521.88
1004.66	3524.88
1004.878	3502.88
1005.095	3479.88
1005.313	3507.88
1005.531	3431.88
1005.748	3394.88
1005.966	3426.88
1006.184	3415.88
1006.401	3403.88
1006.618	3347.88
1006.836	3339.88
1007.053	3337.88
1007.271	3312.88
1007.488	3275.88
1007.705	3287.88
1007.922	3249.88
1008.139	3248.88
1008.357	3219.88
1008.574	3238.88
1008.791	3226.88
1009.008	3212.88
1009.225	3189.88
1009.441	3185.88
1009.658	3146.88
1009.875	3151.88
1010.092	3127.88
1010.309	3095.88
1010.525	3046.88
1010.742	3021.88
1010.958	3016.88
1011.175	2959.88
1011.391	2955.88
1011.608	2949.88
1011.824	2938.88
1012.041	2864.88
1012.257	2900.88
1012.473	2829.88
1012.689	2844.88
1012.906	2785.88
1013.122	2779.88
1013.338	2789.88
1013.554	2765.88
1013.77	2740.88
1013.986	2756.88
1014.202	2739.88
1014.418	2739.88
1014.634	2818.88
1014.849	2773.88
1015.065	2786.88
1015.281	2790.88
1015.496	2792.88
1015.712	2734.88
1015.928	2712.88
1016.143	2621.88
1016.359	2642.88
1016.574	2614.88
1016.79	2570.88
1017.005	2572.88
1017.22	2556.88
1017.435	2467.88
1017.651	2430.88
1017.866	2397.88
1018.081	2381.88
1018.296	2318.88
1018.511	2350.88
1018.726	2286.88
1018.941	2279.88
1019.156	2251.88
1019.371	2266.88
1019.586	2247.88
1019.801	2194.88
1020.015	2179.88
1020.23	2150.88
1020.445	2145.88
1020.659	2144.88
1020.874	2120.88
1021.088	2073.88
1021.303	2069.88
1021.517	2039.88
1021.732	2041.88
1021.946	2014.88
1022.16	2011.88
1022.375	1970.88
1022.589	1939.88
1022.803	1920.88
1023.017	1904.88
1023.231	1866.88
1023.445	1835.88
1023.659	1794.88
1023.873	1765.88
1024.087	1713.88
1024.301	1716.88
1024.515	1656.88
1024.729	1667.88
1024.942	1622.88
1025.156	1629.88
1025.37	1562.88
1025.583	1547.88
1025.797	1508.88
1026.01	1469.88
1026.224	1436.88
1026.437	1378.88
1026.651	1336.88
1026.864	1324.88
1027.077	1326.88
1027.291	1264.88
1027.504	1237.88
1027.717	1218.88
1027.93	1169.88
1028.143	1148.88
1028.356	1079.88
1028.569	1040.88
1028.782	974.88
1028.995	-3.12
1029.208	-0.12
1029.421	-1.12
1029.634	-0.12
