Data from QEP037381__549__16-12-15-288.txt Node

Date: Mon Mar 14 16:12:15 EDT 2022
User: dcclab
Spectrometer: QEP03738
Trigger mode: 4
Integration Time (sec): 1.000000E0
Scans to average: 1
Electric dark correction enabled: true
Nonlinearity correction enabled: false
Boxcar width: 0
XAxis mode: Wavelengths
Number of Pixels in Spectrum: 1044
>>>>>Begin Spectral Data<<<<<
783.959	9
784.218	2
784.476	-1
784.734	-4
784.992	203
785.251	192
785.509	195
785.767	199
786.025	200
786.283	204
786.541	200
786.798	197
787.056	201
787.314	196
787.572	210
787.83	208
788.087	220
788.345	205
788.602	211
788.86	214
789.117	228
789.375	224
789.632	218
789.89	220
790.147	248
790.404	235
790.661	243
790.919	241
791.176	257
791.433	253
791.69	264
791.947	275
792.204	277
792.461	279
792.718	299
792.974	293
793.231	311
793.488	333
793.745	327
794.001	368
794.258	376
794.514	388
794.771	419
795.027	429
795.284	460
795.54	505
795.797	530
796.053	569
796.309	623
796.565	715
796.822	798
797.078	892
797.334	1063
797.59	1248
797.846	1588
798.102	2042
798.358	2794
798.614	4001
798.869	5852
799.125	8700
799.381	12834
799.637	18331
799.892	24763
800.148	32036
800.403	39044
800.659	45046
800.914	49662
801.17	52773
801.425	54867
801.68	56386
801.936	57827
802.191	58951
802.446	60116
802.701	61369
802.957	62662
803.212	63778
803.467	65140
803.722	66487
803.977	67603
804.232	68818
804.486	70393
804.741	71572
804.996	72870
805.251	73922
805.505	75425
805.76	76407
806.015	77535
806.269	78653
806.524	79529
806.778	80100
807.033	80575
807.287	81414
807.541	82716
807.796	83517
808.05	84550
808.304	85431
808.558	85752
808.812	86249
809.066	87076
809.32	87615
809.574	88265
809.828	88726
810.082	89373
810.336	89962
810.59	90918
810.844	91791
811.097	92834
811.351	94234
811.605	95471
811.858	96994
812.112	98728
812.365	100072
812.619	101667
812.872	103067
813.126	104214
813.379	105381
813.632	106943
813.885	108436
814.139	110027
814.392	111364
814.645	113019
814.898	115147
815.151	117303
815.404	119066
815.657	121275
815.91	122765
816.163	124259
816.416	125499
816.668	126064
816.921	126809
817.174	127120
817.426	127087
817.679	127113
817.931	126974
818.184	126713
818.436	126931
818.689	126715
818.941	126760
819.194	127403
819.446	127862
819.698	128204
819.95	128854
820.202	129100
820.455	129421
820.707	129835
820.959	129974
821.211	129849
821.462	129719
821.714	129384
821.966	128729
822.218	127980
822.47	127160
822.722	126692
822.973	126335
823.225	125670
823.476	125553
823.728	125614
823.979	125485
824.231	125534
824.482	125686
824.734	125753
824.985	125319
825.236	125266
825.487	124838
825.739	124327
825.99	124049
826.241	123656
826.492	122721
826.743	122319
826.994	121542
827.245	121353
827.496	120788
827.747	120351
827.997	120320
828.248	120558
828.499	120352
828.75	120706
829	120548
829.251	120118
829.501	119985
829.752	119241
830.002	118885
830.253	118175
830.503	117505
830.753	116499
831.004	115999
831.254	115095
831.504	115043
831.754	114783
832.004	114218
832.254	114475
832.504	114534
832.754	114359
833.004	114170
833.254	113800
833.504	113400
833.754	113155
834.003	112729
834.253	112313
834.503	111486
834.752	111196
835.002	110240
835.252	109489
835.501	109049
835.75	108616
836	108419
836.249	108262
836.499	107934
836.748	107808
836.997	107904
837.246	107738
837.495	108009
837.744	108117
837.993	108127
838.242	107981
838.491	107256
838.74	106649
838.989	105873
839.238	105181
839.487	104614
839.736	104012
839.984	103650
840.233	103207
840.482	102808
840.73	102221
840.979	101794
841.227	101644
841.476	100865
841.724	100749
841.972	100757
842.221	100440
842.469	99829
842.717	99331
842.965	99223
843.213	98850
843.461	98334
843.71	97918
843.958	97452
844.205	97085
844.453	97209
844.701	97175
844.949	96912
845.197	96658
845.445	96626
845.692	96914
845.94	96541
846.188	96611
846.435	96235
846.683	96041
846.93	95538
847.178	95293
847.425	94334
847.672	93696
847.92	93012
848.167	92079
848.414	91135
848.661	90454
848.908	89897
849.155	89540
849.402	89521
849.649	89123
849.896	89437
850.143	89637
850.39	90165
850.637	89995
850.884	90178
851.131	90178
851.377	89627
851.624	89406
851.87	88992
852.117	88418
852.364	87935
852.61	87678
852.856	87014
853.103	86762
853.349	86477
853.595	85998
853.842	85613
854.088	85334
854.334	85834
854.58	85546
854.826	85295
855.072	84590
855.318	83789
855.564	83145
855.81	82525
856.056	81836
856.302	81156
856.548	80318
856.793	80150
857.039	79892
857.285	79690
857.53	79562
857.776	79677
858.021	80036
858.267	80169
858.512	80232
858.758	80295
859.003	80444
859.248	80282
859.493	80211
859.739	79722
859.984	79563
860.229	79238
860.474	78824
860.719	78274
860.964	77885
861.209	77243
861.454	76592
861.699	76433
861.943	75818
862.188	75611
862.433	75304
862.678	74841
862.922	74981
863.167	74747
863.411	74159
863.656	74249
863.9	73957
864.145	73854
864.389	73385
864.634	73105
864.878	72848
865.122	72717
865.366	72180
865.61	72074
865.855	71809
866.099	71749
866.343	71508
866.587	71303
866.831	71277
867.074	71348
867.318	71232
867.562	71219
867.806	71213
868.05	70693
868.293	70754
868.537	70563
868.78	70315
869.024	69706
869.267	69284
869.511	69053
869.754	68342
869.998	67961
870.241	67185
870.484	66623
870.728	66254
870.971	65670
871.214	65663
871.457	65214
871.7	65355
871.943	65412
872.186	65431
872.429	65536
872.672	65485
872.915	65122
873.158	65013
873.4	65130
873.643	64997
873.886	64704
874.128	64580
874.371	64495
874.613	64248
874.856	63736
875.098	63688
875.341	63455
875.583	63316
875.825	63119
876.068	62811
876.31	62353
876.552	61683
876.794	61181
877.036	60683
877.278	60479
877.52	60277
877.762	60036
878.004	59682
878.246	59646
878.488	59717
878.73	59316
878.972	59045
879.213	59218
879.455	59140
879.697	58850
879.938	58604
880.18	58558
880.421	58245
880.663	58098
880.904	57860
881.145	57842
881.387	57579
881.628	57709
881.869	57654
882.11	57500
882.352	57219
882.593	57191
882.834	57024
883.075	56990
883.316	56759
883.557	56558
883.797	56254
884.038	55949
884.279	55367
884.52	54861
884.761	54262
885.001	53901
885.242	53416
885.482	53105
885.723	52700
885.963	52519
886.204	52298
886.444	52220
886.685	52020
886.925	51673
887.165	51463
887.405	51418
887.646	51048
887.886	51175
888.126	50885
888.366	51001
888.606	50968
888.846	51261
889.086	51193
889.326	50956
889.565	51258
889.805	51122
890.045	50855
890.285	50648
890.524	50686
890.764	50422
891.003	49842
891.243	49305
891.482	49005
891.722	48622
891.961	48144
892.201	48128
892.44	47801
892.679	47410
892.918	47155
893.158	47117
893.397	47033
893.636	46817
893.875	46547
894.114	46427
894.353	46260
894.592	46087
894.831	45829
895.069	45524
895.308	45448
895.547	45128
895.786	44775
896.024	44734
896.263	44546
896.501	44603
896.74	44610
896.978	44418
897.217	44261
897.455	44171
897.694	44066
897.932	43898
898.17	43772
898.408	43472
898.646	43319
898.885	43223
899.123	42955
899.361	42684
899.599	42490
899.837	42131
900.075	41933
900.312	41578
900.55	41347
900.788	40923
901.026	40586
901.263	40293
901.501	39832
901.739	39533
901.976	39423
902.214	39239
902.451	39092
902.689	39043
902.926	38921
903.163	38817
903.401	39038
903.638	38845
903.875	38990
904.112	38763
904.349	38674
904.586	38508
904.823	38326
905.06	38152
905.297	37879
905.534	37596
905.771	37259
906.008	37074
906.245	37071
906.481	36723
906.718	36485
906.955	36169
907.191	36122
907.428	35863
907.664	35708
907.901	35604
908.137	35496
908.374	35381
908.61	35331
908.846	35172
909.083	34941
909.319	34650
909.555	34388
909.791	34200
910.027	33866
910.263	33520
910.499	33407
910.735	33128
910.971	32889
911.207	32738
911.443	32399
911.678	32290
911.914	32154
912.15	32269
912.385	31997
912.621	32081
912.857	32054
913.092	32009
913.328	31771
913.563	31857
913.798	31728
914.034	31655
914.269	31572
914.504	31521
914.739	31308
914.975	31106
915.21	30904
915.445	30712
915.68	30331
915.915	30187
916.15	29798
916.384	29440
916.619	29178
916.854	28771
917.089	28776
917.324	28645
917.558	28353
917.793	28105
918.028	28063
918.262	27907
918.497	28053
918.731	27857
918.965	27929
919.2	27733
919.434	27712
919.668	27715
919.903	27520
920.137	27352
920.371	27327
920.605	27030
920.839	26951
921.073	26741
921.307	26536
921.541	26401
921.775	26182
922.009	26027
922.243	26077
922.476	26098
922.71	25931
922.944	25870
923.177	25589
923.411	25769
923.644	25701
923.878	25476
924.111	25432
924.345	25259
924.578	25264
924.811	25060
925.045	24871
925.278	24618
925.511	24619
925.744	24307
925.977	24115
926.21	24013
926.443	23774
926.676	23493
926.909	23426
927.142	23257
927.375	23021
927.608	22851
927.841	22859
928.073	22587
928.306	22493
928.539	22509
928.771	22553
929.004	22518
929.236	22447
929.469	22557
929.701	22503
929.933	22519
930.166	22429
930.398	22412
930.63	22397
930.862	22184
931.094	22138
931.327	22021
931.559	21861
931.791	21597
932.023	21612
932.255	21391
932.486	21181
932.718	21028
932.95	20875
933.182	20770
933.413	20779
933.645	20516
933.877	20487
934.108	20381
934.34	20314
934.571	20231
934.803	20128
935.034	20030
935.265	19962
935.497	19869
935.728	19801
935.959	19733
936.19	19585
936.422	19581
936.653	19454
936.884	19218
937.115	19196
937.346	19106
937.577	18851
937.807	18883
938.038	18803
938.269	18653
938.5	18603
938.73	18562
938.961	18454
939.192	18460
939.422	18474
939.653	18363
939.883	18273
940.114	18366
940.344	18322
940.574	18206
940.805	18009
941.035	17978
941.265	17935
941.495	17682
941.726	17481
941.956	17457
942.186	17303
942.416	17221
942.646	16904
942.876	16857
943.105	16716
943.335	16529
943.565	16479
943.795	16330
944.024	16291
944.254	16157
944.484	16091
944.713	15938
944.943	15865
945.172	15811
945.402	15723
945.631	15756
945.86	15707
946.09	15698
946.319	15611
946.548	15607
946.777	15494
947.006	15447
947.235	15386
947.465	15398
947.694	15214
947.922	15173
948.151	15039
948.38	14892
948.609	14762
948.838	14756
949.067	14551
949.295	14507
949.524	14338
949.752	14389
949.981	14240
950.21	14156
950.438	14058
950.666	13956
950.895	13814
951.123	13732
951.351	13679
951.58	13641
951.808	13458
952.036	13391
952.264	13376
952.492	13325
952.72	13256
952.948	13140
953.176	13073
953.404	13003
953.632	12923
953.86	12743
954.088	12625
954.315	12554
954.543	12421
954.771	12402
954.998	12360
955.226	12323
955.453	12253
955.681	12174
955.908	12101
956.135	12070
956.363	12109
956.59	12040
956.817	12037
957.045	11962
957.272	11953
957.499	11852
957.726	11823
957.953	11754
958.18	11682
958.407	11626
958.634	11501
958.861	11510
959.087	11387
959.314	11297
959.541	11292
959.767	11208
959.994	11051
960.221	10996
960.447	10841
960.674	10837
960.9	10681
961.127	10646
961.353	10631
961.579	10479
961.806	10438
962.032	10360
962.258	10331
962.484	10325
962.71	10271
962.936	10253
963.162	10180
963.388	10129
963.614	10190
963.84	10095
964.066	10071
964.292	10044
964.518	10050
964.743	9892
964.969	9863
965.195	9856
965.42	9780
965.646	9710
965.871	9677
966.097	9642
966.322	9634
966.547	9509
966.773	9473
966.998	9394
967.223	9331
967.448	9355
967.674	9233
967.899	9202
968.124	9121
968.349	9136
968.574	9060
968.799	8999
969.024	8949
969.248	8821
969.473	8825
969.698	8829
969.923	8751
970.147	8638
970.372	8601
970.596	8538
970.821	8473
971.046	8429
971.27	8375
971.494	8348
971.719	8255
971.943	8138
972.167	8143
972.392	8145
972.616	8063
972.84	8056
973.064	7968
973.288	7901
973.512	7917
973.736	7902
973.96	7824
974.184	7807
974.408	7749
974.631	7794
974.855	7697
975.079	7656
975.303	7695
975.526	7577
975.75	7587
975.973	7564
976.197	7521
976.42	7461
976.644	7434
976.867	7303
977.09	7348
977.313	7256
977.537	7229
977.76	7146
977.983	7085
978.206	7095
978.429	7014
978.652	6946
978.875	6915
979.098	6838
979.321	6815
979.544	6754
979.767	6724
979.989	6686
980.212	6633
980.435	6596
980.657	6534
980.88	6506
981.102	6512
981.325	6501
981.547	6482
981.77	6409
981.992	6345
982.214	6379
982.437	6333
982.659	6327
982.881	6184
983.103	6255
983.325	6192
983.547	6148
983.769	6172
983.991	6097
984.213	6055
984.435	6114
984.657	6012
984.879	5954
985.1	5976
985.322	5944
985.544	5875
985.765	5817
985.987	5804
986.208	5791
986.43	5733
986.651	5746
986.873	5697
987.094	5632
987.315	5624
987.536	5557
987.758	5533
987.979	5459
988.2	5457
988.421	5343
988.642	5391
988.863	5314
989.084	5326
989.305	5252
989.526	5230
989.747	5166
989.967	5187
990.188	5090
990.409	5067
990.629	5027
990.85	4953
991.071	4979
991.291	4924
991.512	4857
991.732	4864
991.952	4919
992.173	4839
992.393	4794
992.613	4760
992.834	4780
993.054	4750
993.274	4726
993.494	4717
993.714	4675
993.934	4723
994.154	4657
994.374	4655
994.594	4596
994.813	4600
995.033	4557
995.253	4541
995.473	4536
995.692	4477
995.912	4419
996.131	4408
996.351	4363
996.57	4313
996.79	4283
997.009	4273
997.228	4204
997.448	4194
997.667	4184
997.886	4109
998.105	4098
998.325	4041
998.544	4025
998.763	4002
998.982	3953
999.201	3943
999.419	3916
999.638	3876
999.857	3877
1000.076	3860
1000.295	3829
1000.513	3812
1000.732	3778
1000.95	3829
1001.169	3742
1001.388	3768
1001.606	3712
1001.824	3713
1002.043	3701
1002.261	3638
1002.479	3657
1002.698	3619
1002.916	3616
1003.134	3575
1003.352	3559
1003.57	3528
1003.788	3515
1004.006	3459
1004.224	3483
1004.442	3453
1004.66	3472
1004.878	3409
1005.095	3415
1005.313	3356
1005.531	3359
1005.748	3348
1005.966	3354
1006.184	3318
1006.401	3291
1006.618	3271
1006.836	3256
1007.053	3271
1007.271	3210
1007.488	3188
1007.705	3159
1007.922	3171
1008.139	3142
1008.357	3124
1008.574	3126
1008.791	3131
1009.008	3113
1009.225	3118
1009.441	3139
1009.658	3087
1009.875	3053
1010.092	3031
1010.309	3022
1010.525	2993
1010.742	2917
1010.958	2930
1011.175	2901
1011.391	2890
1011.608	2898
1011.824	2834
1012.041	2825
1012.257	2808
1012.473	2764
1012.689	2758
1012.906	2744
1013.122	2701
1013.338	2716
1013.554	2681
1013.77	2679
1013.986	2713
1014.202	2688
1014.418	2700
1014.634	2745
1014.849	2696
1015.065	2726
1015.281	2690
1015.496	2722
1015.712	2657
1015.928	2632
1016.143	2575
1016.359	2565
1016.574	2524
1016.79	2526
1017.005	2476
1017.22	2469
1017.435	2391
1017.651	2395
1017.866	2350
1018.081	2349
1018.296	2270
1018.511	2252
1018.726	2253
1018.941	2211
1019.156	2180
1019.371	2156
1019.586	2167
1019.801	2158
1020.015	2113
1020.23	2144
1020.445	2075
1020.659	2066
1020.874	2043
1021.088	2037
1021.303	2015
1021.517	1994
1021.732	1968
1021.946	1940
1022.16	1986
1022.375	1945
1022.589	1917
1022.803	1881
1023.017	1855
1023.231	1846
1023.445	1790
1023.659	1731
1023.873	1739
1024.087	1708
1024.301	1665
1024.515	1630
1024.729	1625
1024.942	1586
1025.156	1551
1025.37	1529
1025.583	1479
1025.797	1475
1026.01	1433
1026.224	1424
1026.437	1358
1026.651	1330
1026.864	1301
1027.077	1279
1027.291	1242
1027.504	1199
1027.717	1192
1027.93	1153
1028.143	1102
1028.356	1060
1028.569	1008
1028.782	967
1028.995	-1
1029.208	-4
1029.421	1
1029.634	-2
