Data from QEP037381__638__16-14-02-290.txt Node

Date: Mon Mar 14 16:14:02 EDT 2022
User: dcclab
Spectrometer: QEP03738
Trigger mode: 4
Integration Time (sec): 1.000000E0
Scans to average: 1
Electric dark correction enabled: true
Nonlinearity correction enabled: false
Boxcar width: 0
XAxis mode: Wavelengths
Number of Pixels in Spectrum: 1044
>>>>>Begin Spectral Data<<<<<
783.959	11.38
784.218	2.38
784.476	-1.62
784.734	-4.62
784.992	206.38
785.251	190.38
785.509	200.38
785.767	198.38
786.025	207.38
786.283	205.38
786.541	202.38
786.798	205.38
787.056	214.38
787.314	214.38
787.572	217.38
787.83	218.38
788.087	223.38
788.345	214.38
788.602	224.38
788.86	230.38
789.117	239.38
789.375	235.38
789.632	242.38
789.89	238.38
790.147	253.38
790.404	258.38
790.661	256.38
790.919	264.38
791.176	273.38
791.433	267.38
791.69	286.38
791.947	300.38
792.204	292.38
792.461	299.38
792.718	312.38
792.974	310.38
793.231	321.38
793.488	357.38
793.745	369.38
794.001	383.38
794.258	400.38
794.514	426.38
794.771	442.38
795.027	473.38
795.284	485.38
795.54	526.38
795.797	572.38
796.053	615.38
796.309	667.38
796.565	727.38
796.822	833.38
797.078	964.38
797.334	1132.38
797.59	1318.38
797.846	1660.38
798.102	2206.38
798.358	2991.38
798.614	4283.38
798.869	6301.38
799.125	9326.38
799.381	13700.38
799.637	19630.38
799.892	26600.38
800.148	34177.38
800.403	41864.38
800.659	48319.38
800.914	53292.38
801.17	56889.38
801.425	59102.38
801.68	60776.38
801.936	61978.38
802.191	63493.38
802.446	64795.38
802.701	65979.38
802.957	67475.38
803.212	68799.38
803.467	70075.38
803.722	71303.38
803.977	72731.38
804.232	73948.38
804.486	75662.38
804.741	77155.38
804.996	78195.38
805.251	79603.38
805.505	80987.38
805.76	82046.38
806.015	83136.38
806.269	84275.38
806.524	85422.38
806.778	86272.38
807.033	86885.38
807.287	87435.38
807.541	88497.38
807.796	89733.38
808.05	91030.38
808.304	91670.38
808.558	92138.38
808.812	92691.38
809.066	93443.38
809.32	93990.38
809.574	94718.38
809.828	95156.38
810.082	95777.38
810.336	96756.38
810.59	97543.38
810.844	98393.38
811.097	99613.38
811.351	100690.38
811.605	102664.38
811.858	104136.38
812.112	106041.38
812.365	107353.38
812.619	109147.38
812.872	110524.38
813.126	111739.38
813.379	113273.38
813.632	114596.38
813.885	115904.38
814.139	117651.38
814.392	119340.38
814.645	121041.38
814.898	123312.38
815.151	125487.38
815.404	127560.38
815.657	129889.38
815.91	131534.38
816.163	132968.38
816.416	134445.38
816.668	135186.38
816.921	135615.38
817.174	136284.38
817.426	136287.38
817.679	136085.38
817.931	135499.38
818.184	135669.38
818.436	135595.38
818.689	135477.38
818.941	135822.38
819.194	136144.38
819.446	136601.38
819.698	137107.38
819.95	137653.38
820.202	138240.38
820.455	137958.38
820.707	138745.38
820.959	138731.38
821.211	138698.38
821.462	138406.38
821.714	138217.38
821.966	137445.38
822.218	136714.38
822.47	136047.38
822.722	135454.38
822.973	134573.38
823.225	134407.38
823.476	134338.38
823.728	134304.38
823.979	133916.38
824.231	134153.38
824.482	134083.38
824.734	133975.38
824.985	134132.38
825.236	133859.38
825.487	133032.38
825.739	132822.38
825.99	132103.38
826.241	131793.38
826.492	131298.38
826.743	130266.38
826.994	129777.38
827.245	129235.38
827.496	128589.38
827.747	128661.38
827.997	128244.38
828.248	128314.38
828.499	128602.38
828.75	128455.38
829	128553.38
829.251	128167.38
829.501	127913.38
829.752	127440.38
830.002	126626.38
830.253	125982.38
830.503	124878.38
830.753	124269.38
831.004	123335.38
831.254	122758.38
831.504	122204.38
831.754	122119.38
832.004	121789.38
832.254	121715.38
832.504	121848.38
832.754	121748.38
833.004	121442.38
833.254	121192.38
833.504	120713.38
833.754	120710.38
834.003	119999.38
834.253	119450.38
834.503	118821.38
834.752	117957.38
835.002	117188.38
835.252	116411.38
835.501	116111.38
835.75	115546.38
836	115261.38
836.249	115010.38
836.499	114998.38
836.748	114781.38
836.997	114372.38
837.246	114629.38
837.495	114903.38
837.744	114704.38
837.993	114499.38
838.242	114162.38
838.491	113989.38
838.74	113368.38
838.989	112363.38
839.238	111762.38
839.487	110978.38
839.736	110382.38
839.984	110269.38
840.233	109771.38
840.482	108984.38
840.73	108629.38
840.979	108270.38
841.227	107965.38
841.476	107528.38
841.724	107172.38
841.972	106914.38
842.221	106566.38
842.469	106031.38
842.717	105705.38
842.965	105271.38
843.213	104835.38
843.461	104575.38
843.71	103860.38
843.958	103516.38
844.205	103150.38
844.453	103118.38
844.701	102954.38
844.949	102950.38
845.197	102604.38
845.445	102466.38
845.692	102899.38
845.94	102808.38
846.188	102547.38
846.435	102319.38
846.683	101668.38
846.93	101517.38
847.178	100816.38
847.425	99935.38
847.672	99289.38
847.92	98728.38
848.167	97595.38
848.414	96825.38
848.661	95767.38
848.908	95153.38
849.155	94966.38
849.402	94820.38
849.649	94658.38
849.896	94673.38
850.143	95057.38
850.39	95536.38
850.637	95453.38
850.884	95319.38
851.131	95217.38
851.377	95162.38
851.624	94722.38
851.87	94332.38
852.117	93705.38
852.364	93137.38
852.61	92889.38
852.856	92444.38
853.103	91709.38
853.349	91630.38
853.595	91194.38
853.842	90451.38
854.088	90570.38
854.334	90681.38
854.58	90461.38
854.826	90122.38
855.072	89653.38
855.318	88673.38
855.564	88358.38
855.81	87216.38
856.056	86467.38
856.302	85807.38
856.548	85340.38
856.793	84787.38
857.039	84452.38
857.285	84257.38
857.53	84121.38
857.776	84279.38
858.021	84487.38
858.267	84806.38
858.512	85044.38
858.758	84887.38
859.003	85042.38
859.248	85101.38
859.493	84795.38
859.739	84604.38
859.984	84330.38
860.229	83695.38
860.474	83359.38
860.719	82813.38
860.964	82089.38
861.209	81699.38
861.454	81253.38
861.699	80794.38
861.943	80216.38
862.188	80065.38
862.433	79388.38
862.678	79439.38
862.922	79120.38
863.167	78959.38
863.411	78635.38
863.656	78525.38
863.9	78140.38
864.145	77957.38
864.389	77530.38
864.634	77414.38
864.878	76999.38
865.122	76525.38
865.366	76512.38
865.61	76337.38
865.855	76102.38
866.099	76090.38
866.343	75781.38
866.587	75420.38
866.831	75141.38
867.074	75204.38
867.318	75300.38
867.562	75133.38
867.806	75185.38
868.05	75117.38
868.293	74771.38
868.537	74455.38
868.78	74145.38
869.024	73790.38
869.267	73303.38
869.511	72934.38
869.754	72072.38
869.998	71552.38
870.241	70882.38
870.484	70411.38
870.728	69855.38
870.971	69637.38
871.214	69254.38
871.457	68851.38
871.7	69036.38
871.943	69008.38
872.186	69200.38
872.429	68985.38
872.672	69040.38
872.915	68820.38
873.158	68606.38
873.4	68855.38
873.643	68467.38
873.886	68374.38
874.128	68128.38
874.371	68022.38
874.613	67643.38
874.856	67450.38
875.098	67069.38
875.341	67041.38
875.583	66902.38
875.825	66606.38
876.068	66162.38
876.31	65765.38
876.552	65202.38
876.794	64593.38
877.036	64184.38
877.278	63864.38
877.52	63557.38
877.762	63337.38
878.004	62838.38
878.246	62789.38
878.488	62687.38
878.73	62534.38
878.972	62529.38
879.213	62316.38
879.455	62287.38
879.697	62337.38
879.938	62018.38
880.18	61624.38
880.421	61396.38
880.663	61120.38
880.904	60970.38
881.145	60905.38
881.387	60828.38
881.628	60934.38
881.869	60769.38
882.11	60834.38
882.352	60511.38
882.593	60431.38
882.834	60180.38
883.075	60225.38
883.316	59977.38
883.557	59733.38
883.797	59347.38
884.038	58876.38
884.279	58231.38
884.52	57843.38
884.761	57357.38
885.001	56784.38
885.242	56344.38
885.482	55870.38
885.723	55529.38
885.963	55225.38
886.204	55248.38
886.444	55098.38
886.685	54914.38
886.925	54616.38
887.165	54350.38
887.405	54125.38
887.646	53913.38
887.886	53789.38
888.126	53903.38
888.366	53656.38
888.606	53748.38
888.846	53887.38
889.086	53976.38
889.326	53964.38
889.565	53879.38
889.805	53866.38
890.045	53653.38
890.285	53449.38
890.524	53344.38
890.764	53113.38
891.003	52645.38
891.243	52077.38
891.482	51594.38
891.722	51143.38
891.961	50914.38
892.201	50641.38
892.44	50320.38
892.679	49984.38
892.918	49741.38
893.158	49786.38
893.397	49649.38
893.636	49267.38
893.875	49259.38
894.114	48919.38
894.353	48706.38
894.592	48593.38
894.831	48366.38
895.069	48052.38
895.308	47684.38
895.547	47455.38
895.786	47337.38
896.024	47293.38
896.263	46966.38
896.501	46975.38
896.74	46844.38
896.978	46900.38
897.217	46776.38
897.455	46661.38
897.694	46463.38
897.932	46352.38
898.17	46067.38
898.408	45879.38
898.646	45747.38
898.885	45396.38
899.123	45221.38
899.361	44893.38
899.599	44745.38
899.837	44373.38
900.075	44169.38
900.312	43966.38
900.55	43482.38
900.788	43033.38
901.026	42626.38
901.263	42357.38
901.501	41960.38
901.739	41796.38
901.976	41501.38
902.214	41296.38
902.451	41114.38
902.689	41114.38
902.926	41081.38
903.163	40967.38
903.401	40959.38
903.638	40938.38
903.875	40986.38
904.112	40810.38
904.349	40758.38
904.586	40574.38
904.823	40501.38
905.06	40146.38
905.297	39901.38
905.534	39576.38
905.771	39221.38
906.008	39142.38
906.245	38750.38
906.481	38608.38
906.718	38339.38
906.955	38156.38
907.191	37986.38
907.428	37719.38
907.664	37572.38
907.901	37603.38
908.137	37311.38
908.374	37202.38
908.61	37035.38
908.846	36978.38
909.083	36794.38
909.319	36542.38
909.555	36158.38
909.791	35918.38
910.027	35629.38
910.263	35359.38
910.499	35186.38
910.735	34767.38
910.971	34575.38
911.207	34438.38
911.443	34108.38
911.678	33940.38
911.914	33821.38
912.15	33791.38
912.385	33846.38
912.621	33687.38
912.857	33615.38
913.092	33584.38
913.328	33558.38
913.563	33448.38
913.798	33478.38
914.034	33310.38
914.269	33238.38
914.504	33144.38
914.739	32945.38
914.975	32758.38
915.21	32466.38
915.445	32240.38
915.68	31977.38
915.915	31791.38
916.15	31460.38
916.384	31034.38
916.619	30581.38
916.854	30477.38
917.089	30279.38
917.324	30096.38
917.558	29798.38
917.793	29699.38
918.028	29531.38
918.262	29375.38
918.497	29392.38
918.731	29352.38
918.965	29277.38
919.2	29169.38
919.434	29265.38
919.668	29013.38
919.903	29052.38
920.137	28764.38
920.371	28688.38
920.605	28465.38
920.839	28379.38
921.073	28043.38
921.307	27955.38
921.541	27732.38
921.775	27540.38
922.009	27463.38
922.243	27339.38
922.476	27337.38
922.71	27198.38
922.944	27143.38
923.177	27089.38
923.411	27099.38
923.644	26932.38
923.878	26739.38
924.111	26721.38
924.345	26686.38
924.578	26495.38
924.811	26297.38
925.045	26112.38
925.278	25995.38
925.511	25861.38
925.744	25596.38
925.977	25305.38
926.21	25137.38
926.443	24880.38
926.676	24748.38
926.909	24516.38
927.142	24286.38
927.375	24169.38
927.608	23975.38
927.841	23872.38
928.073	23725.38
928.306	23715.38
928.539	23657.38
928.771	23611.38
929.004	23597.38
929.236	23630.38
929.469	23572.38
929.701	23626.38
929.933	23605.38
930.166	23590.38
930.398	23512.38
930.63	23514.38
930.862	23325.38
931.094	23284.38
931.327	23115.38
931.559	22879.38
931.791	22724.38
932.023	22497.38
932.255	22531.38
932.486	22268.38
932.718	22040.38
932.95	21949.38
933.182	21831.38
933.413	21694.38
933.645	21630.38
933.877	21396.38
934.108	21401.38
934.34	21167.38
934.571	21217.38
934.803	21056.38
935.034	20973.38
935.265	20797.38
935.497	20846.38
935.728	20729.38
935.959	20660.38
936.19	20483.38
936.422	20550.38
936.653	20280.38
936.884	20217.38
937.115	20135.38
937.346	20040.38
937.577	19781.38
937.807	19767.38
938.038	19499.38
938.269	19639.38
938.5	19486.38
938.73	19401.38
938.961	19267.38
939.192	19356.38
939.422	19261.38
939.653	19303.38
939.883	19233.38
940.114	19246.38
940.344	19179.38
940.574	18954.38
940.805	18969.38
941.035	18845.38
941.265	18687.38
941.495	18550.38
941.726	18318.38
941.956	18212.38
942.186	18114.38
942.416	17950.38
942.646	17828.38
942.876	17694.38
943.105	17543.38
943.335	17328.38
943.565	17289.38
943.795	17117.38
944.024	17038.38
944.254	16959.38
944.484	16774.38
944.713	16801.38
944.943	16601.38
945.172	16473.38
945.402	16559.38
945.631	16447.38
945.86	16424.38
946.09	16385.38
946.319	16260.38
946.548	16284.38
946.777	16220.38
947.006	16226.38
947.235	16186.38
947.465	15991.38
947.694	15842.38
947.922	15849.38
948.151	15771.38
948.38	15524.38
948.609	15465.38
948.838	15348.38
949.067	15247.38
949.295	15144.38
949.524	15017.38
949.752	14969.38
949.981	14896.38
950.21	14809.38
950.438	14686.38
950.666	14612.38
950.895	14538.38
951.123	14444.38
951.351	14351.38
951.58	14200.38
951.808	14135.38
952.036	14058.38
952.264	13915.38
952.492	13931.38
952.72	13829.38
952.948	13751.38
953.176	13664.38
953.404	13567.38
953.632	13418.38
953.86	13306.38
954.088	13171.38
954.315	13163.38
954.543	13043.38
954.771	12953.38
954.998	12796.38
955.226	12841.38
955.453	12733.38
955.681	12754.38
955.908	12622.38
956.135	12616.38
956.363	12642.38
956.59	12581.38
956.817	12417.38
957.045	12509.38
957.272	12452.38
957.499	12421.38
957.726	12285.38
957.953	12301.38
958.18	12244.38
958.407	12145.38
958.634	12063.38
958.861	11952.38
959.087	11850.38
959.314	11767.38
959.541	11700.38
959.767	11600.38
959.994	11547.38
960.221	11453.38
960.447	11277.38
960.674	11303.38
960.9	11169.38
961.127	11141.38
961.353	11073.38
961.579	10903.38
961.806	10874.38
962.032	10860.38
962.258	10733.38
962.484	10717.38
962.71	10636.38
962.936	10646.38
963.162	10590.38
963.388	10628.38
963.614	10538.38
963.84	10474.38
964.066	10528.38
964.292	10417.38
964.518	10307.38
964.743	10346.38
964.969	10317.38
965.195	10244.38
965.42	10153.38
965.646	10099.38
965.871	10113.38
966.097	10070.38
966.322	9941.38
966.547	9885.38
966.773	9851.38
966.998	9839.38
967.223	9774.38
967.448	9650.38
967.674	9614.38
967.899	9546.38
968.124	9518.38
968.349	9428.38
968.574	9415.38
968.799	9310.38
969.024	9281.38
969.248	9251.38
969.473	9186.38
969.698	9112.38
969.923	9067.38
970.147	9050.38
970.372	8937.38
970.596	8834.38
970.821	8883.38
971.046	8803.38
971.27	8702.38
971.494	8670.38
971.719	8612.38
971.943	8513.38
972.167	8507.38
972.392	8418.38
972.616	8340.38
972.84	8306.38
973.064	8303.38
973.288	8282.38
973.512	8194.38
973.736	8185.38
973.96	8120.38
974.184	8126.38
974.408	8069.38
974.631	8071.38
974.855	8034.38
975.079	8006.38
975.303	7937.38
975.526	7935.38
975.75	7849.38
975.973	7807.38
976.197	7826.38
976.42	7790.38
976.644	7735.38
976.867	7690.38
977.09	7649.38
977.313	7532.38
977.537	7540.38
977.76	7457.38
977.983	7379.38
978.206	7315.38
978.429	7338.38
978.652	7248.38
978.875	7187.38
979.098	7127.38
979.321	7117.38
979.544	7056.38
979.767	6983.38
979.989	6975.38
980.212	6884.38
980.435	6861.38
980.657	6806.38
980.88	6799.38
981.102	6744.38
981.325	6772.38
981.547	6678.38
981.77	6712.38
981.992	6588.38
982.214	6569.38
982.437	6544.38
982.659	6515.38
982.881	6528.38
983.103	6484.38
983.325	6470.38
983.547	6419.38
983.769	6385.38
983.991	6344.38
984.213	6261.38
984.435	6261.38
984.657	6208.38
984.879	6231.38
985.1	6135.38
985.322	6146.38
985.544	6133.38
985.765	6028.38
985.987	6034.38
986.208	5999.38
986.43	5996.38
986.651	5906.38
986.873	5927.38
987.094	5900.38
987.315	5819.38
987.536	5765.38
987.758	5761.38
987.979	5694.38
988.2	5687.38
988.421	5607.38
988.642	5570.38
988.863	5502.38
989.084	5523.38
989.305	5453.38
989.526	5464.38
989.747	5350.38
989.967	5318.38
990.188	5335.38
990.409	5286.38
990.629	5265.38
990.85	5168.38
991.071	5111.38
991.291	5121.38
991.512	5110.38
991.732	5056.38
991.952	5055.38
992.173	4983.38
992.393	4993.38
992.613	4969.38
992.834	4966.38
993.054	4974.38
993.274	4939.38
993.494	4902.38
993.714	4899.38
993.934	4845.38
994.154	4840.38
994.374	4812.38
994.594	4845.38
994.813	4753.38
995.033	4757.38
995.253	4697.38
995.473	4654.38
995.692	4688.38
995.912	4628.38
996.131	4574.38
996.351	4531.38
996.57	4520.38
996.79	4495.38
997.009	4476.38
997.228	4380.38
997.448	4328.38
997.667	4313.38
997.886	4229.38
998.105	4196.38
998.325	4231.38
998.544	4215.38
998.763	4136.38
998.982	4140.38
999.201	4120.38
999.419	4075.38
999.638	4040.38
999.857	4018.38
1000.076	3979.38
1000.295	3999.38
1000.513	3985.38
1000.732	3950.38
1000.95	3921.38
1001.169	3905.38
1001.388	3877.38
1001.606	3891.38
1001.824	3858.38
1002.043	3820.38
1002.261	3840.38
1002.479	3800.38
1002.698	3745.38
1002.916	3758.38
1003.134	3744.38
1003.352	3671.38
1003.57	3639.38
1003.788	3681.38
1004.006	3615.38
1004.224	3632.38
1004.442	3545.38
1004.66	3591.38
1004.878	3565.38
1005.095	3535.38
1005.313	3492.38
1005.531	3450.38
1005.748	3487.38
1005.966	3527.38
1006.184	3419.38
1006.401	3425.38
1006.618	3384.38
1006.836	3372.38
1007.053	3359.38
1007.271	3325.38
1007.488	3277.38
1007.705	3313.38
1007.922	3296.38
1008.139	3217.38
1008.357	3261.38
1008.574	3232.38
1008.791	3225.38
1009.008	3250.38
1009.225	3229.38
1009.441	3237.38
1009.658	3166.38
1009.875	3209.38
1010.092	3178.38
1010.309	3104.38
1010.525	3117.38
1010.742	3068.38
1010.958	3035.38
1011.175	3018.38
1011.391	3000.38
1011.608	2969.38
1011.824	2900.38
1012.041	2912.38
1012.257	2930.38
1012.473	2822.38
1012.689	2865.38
1012.906	2848.38
1013.122	2809.38
1013.338	2811.38
1013.554	2790.38
1013.77	2773.38
1013.986	2817.38
1014.202	2788.38
1014.418	2773.38
1014.634	2793.38
1014.849	2803.38
1015.065	2824.38
1015.281	2820.38
1015.496	2784.38
1015.712	2784.38
1015.928	2709.38
1016.143	2703.38
1016.359	2677.38
1016.574	2684.38
1016.79	2589.38
1017.005	2562.38
1017.22	2512.38
1017.435	2519.38
1017.651	2471.38
1017.866	2435.38
1018.081	2387.38
1018.296	2359.38
1018.511	2334.38
1018.726	2336.38
1018.941	2276.38
1019.156	2255.38
1019.371	2280.38
1019.586	2270.38
1019.801	2215.38
1020.015	2197.38
1020.23	2193.38
1020.445	2154.38
1020.659	2167.38
1020.874	2136.38
1021.088	2126.38
1021.303	2095.38
1021.517	2085.38
1021.732	2058.38
1021.946	2013.38
1022.16	2045.38
1022.375	1985.38
1022.589	1959.38
1022.803	1973.38
1023.017	1912.38
1023.231	1878.38
1023.445	1862.38
1023.659	1808.38
1023.873	1778.38
1024.087	1754.38
1024.301	1702.38
1024.515	1686.38
1024.729	1694.38
1024.942	1653.38
1025.156	1605.38
1025.37	1599.38
1025.583	1529.38
1025.797	1517.38
1026.01	1490.38
1026.224	1439.38
1026.437	1405.38
1026.651	1377.38
1026.864	1342.38
1027.077	1300.38
1027.291	1269.38
1027.504	1245.38
1027.717	1217.38
1027.93	1181.38
1028.143	1138.38
1028.356	1113.38
1028.569	1057.38
1028.782	986.38
1028.995	0.38
1029.208	-2.62
1029.421	-3.62
1029.634	-1.62
