Data from QEP037381__627__16-13-43-289.txt Node

Date: Mon Mar 14 16:13:43 EDT 2022
User: dcclab
Spectrometer: QEP03738
Trigger mode: 4
Integration Time (sec): 1.000000E0
Scans to average: 1
Electric dark correction enabled: true
Nonlinearity correction enabled: false
Boxcar width: 0
XAxis mode: Wavelengths
Number of Pixels in Spectrum: 1044
>>>>>Begin Spectral Data<<<<<
783.959	13.62
784.218	-0.38
784.476	-4.38
784.734	-3.38
784.992	198.62
785.251	198.62
785.509	200.62
785.767	196.62
786.025	203.62
786.283	204.62
786.541	214.62
786.798	208.62
787.056	206.62
787.314	212.62
787.572	218.62
787.83	217.62
788.087	217.62
788.345	223.62
788.602	227.62
788.86	220.62
789.117	232.62
789.375	238.62
789.632	227.62
789.89	225.62
790.147	237.62
790.404	241.62
790.661	263.62
790.919	258.62
791.176	261.62
791.433	272.62
791.69	285.62
791.947	287.62
792.204	286.62
792.461	300.62
792.718	300.62
792.974	309.62
793.231	327.62
793.488	347.62
793.745	358.62
794.001	379.62
794.258	393.62
794.514	411.62
794.771	450.62
795.027	446.62
795.284	492.62
795.54	527.62
795.797	555.62
796.053	603.62
796.309	662.62
796.565	737.62
796.822	815.62
797.078	928.62
797.334	1086.62
797.59	1306.62
797.846	1613.62
798.102	2151.62
798.358	2945.62
798.614	4196.62
798.869	6128.62
799.125	9204.62
799.381	13452.62
799.637	19080.62
799.892	25893.62
800.148	33450.62
800.403	40965.62
800.659	47194.62
800.914	52148.62
801.17	55555.62
801.425	57759.62
801.68	59444.62
801.936	60825.62
802.191	61975.62
802.446	63536.62
802.701	64882.62
802.957	65825.62
803.212	67335.62
803.467	68564.62
803.722	69900.62
803.977	71308.62
804.232	72363.62
804.486	74015.62
804.741	75052.62
804.996	76625.62
805.251	77782.62
805.505	79290.62
805.76	80341.62
806.015	81679.62
806.269	82563.62
806.524	83677.62
806.778	84288.62
807.033	84800.62
807.287	85682.62
807.541	86754.62
807.796	88007.62
808.05	88851.62
808.304	89549.62
808.558	90420.62
808.812	90600.62
809.066	91553.62
809.32	92078.62
809.574	92701.62
809.828	93186.62
810.082	93693.62
810.336	94390.62
810.59	95473.62
810.844	96311.62
811.097	97665.62
811.351	98869.62
811.605	100360.62
811.858	102020.62
812.112	103577.62
812.365	105428.62
812.619	106777.62
812.872	108078.62
813.126	109589.62
813.379	110890.62
813.632	112231.62
813.885	113692.62
814.139	115344.62
814.392	116889.62
814.645	118542.62
814.898	120977.62
815.151	122937.62
815.404	125021.62
815.657	126861.62
815.91	128891.62
816.163	130169.62
816.416	131645.62
816.668	132570.62
816.921	133201.62
817.174	133258.62
817.426	133391.62
817.679	133229.62
817.931	132952.62
818.184	133106.62
818.436	132839.62
818.689	132664.62
818.941	133029.62
819.194	133790.62
819.446	133845.62
819.698	134297.62
819.95	135229.62
820.202	135308.62
820.455	135738.62
820.707	136090.62
820.959	135983.62
821.211	135928.62
821.462	135975.62
821.714	135504.62
821.966	134746.62
822.218	133985.62
822.47	133267.62
822.722	132763.62
822.973	131956.62
823.225	131755.62
823.476	131846.62
823.728	131431.62
823.979	131607.62
824.231	131366.62
824.482	131443.62
824.734	131348.62
824.985	131222.62
825.236	131069.62
825.487	130438.62
825.739	130026.62
825.99	129864.62
826.241	129037.62
826.492	128469.62
826.743	127816.62
826.994	127546.62
827.245	126840.62
827.496	126268.62
827.747	125810.62
827.997	126073.62
828.248	126022.62
828.499	126103.62
828.75	126034.62
829	126011.62
829.251	125937.62
829.501	125473.62
829.752	124984.62
830.002	124154.62
830.253	123314.62
830.503	122823.62
830.753	122088.62
831.004	120991.62
831.254	120329.62
831.504	120129.62
831.754	119689.62
832.004	119430.62
832.254	119578.62
832.504	119640.62
832.754	119724.62
833.004	119059.62
833.254	118830.62
833.504	118825.62
833.754	118316.62
834.003	117771.62
834.253	117363.62
834.503	116600.62
834.752	115801.62
835.002	114964.62
835.252	114547.62
835.501	113614.62
835.75	113627.62
836	113125.62
836.249	113143.62
836.499	112553.62
836.748	112532.62
836.997	112401.62
837.246	112459.62
837.495	112618.62
837.744	112803.62
837.993	112720.62
838.242	112291.62
838.491	111818.62
838.74	111469.62
838.989	110405.62
839.238	109930.62
839.487	109232.62
839.736	108814.62
839.984	108038.62
840.233	107683.62
840.482	107216.62
840.73	106578.62
840.979	106286.62
841.227	105895.62
841.476	105615.62
841.724	105181.62
841.972	104906.62
842.221	104786.62
842.469	104223.62
842.717	103666.62
842.965	103519.62
843.213	103044.62
843.461	102403.62
843.71	101970.62
843.958	101943.62
844.205	101366.62
844.453	101355.62
844.701	101275.62
844.949	101283.62
845.197	100722.62
845.445	100795.62
845.692	101108.62
845.94	100861.62
846.188	100759.62
846.435	100706.62
846.683	100220.62
846.93	99684.62
847.178	99281.62
847.425	98266.62
847.672	97703.62
847.92	96776.62
848.167	95911.62
848.414	94986.62
848.661	94230.62
848.908	93918.62
849.155	93401.62
849.402	93207.62
849.649	93066.62
849.896	93362.62
850.143	93438.62
850.39	93947.62
850.637	93917.62
850.884	93666.62
851.131	93812.62
851.377	93708.62
851.624	93244.62
851.87	92723.62
852.117	92024.62
852.364	91420.62
852.61	91101.62
852.856	90617.62
853.103	90212.62
853.349	90146.62
853.595	89756.62
853.842	89109.62
854.088	89004.62
854.334	89141.62
854.58	89071.62
854.826	88748.62
855.072	88283.62
855.318	87452.62
855.564	86562.62
855.81	85783.62
856.056	85155.62
856.302	84458.62
856.548	83882.62
856.793	83544.62
857.039	83135.62
857.285	82872.62
857.53	82819.62
857.776	82874.62
858.021	83208.62
858.267	83528.62
858.512	83443.62
858.758	83676.62
859.003	83630.62
859.248	83683.62
859.493	83479.62
859.739	83260.62
859.984	82901.62
860.229	82346.62
860.474	81764.62
860.719	81533.62
860.964	80896.62
861.209	80446.62
861.454	79771.62
861.699	79339.62
861.943	78991.62
862.188	78675.62
862.433	78274.62
862.678	78187.62
862.922	77925.62
863.167	77677.62
863.411	77426.62
863.656	77161.62
863.9	77121.62
864.145	76830.62
864.389	76135.62
864.634	75928.62
864.878	75637.62
865.122	75342.62
865.366	75240.62
865.61	75065.62
865.855	74826.62
866.099	74720.62
866.343	74409.62
866.587	74075.62
866.831	74077.62
867.074	73988.62
867.318	73994.62
867.562	73919.62
867.806	74062.62
868.05	73656.62
868.293	73596.62
868.537	73223.62
868.78	73063.62
869.024	72798.62
869.267	72229.62
869.511	71653.62
869.754	71069.62
869.998	70198.62
870.241	69533.62
870.484	69204.62
870.728	68802.62
870.971	68501.62
871.214	68092.62
871.457	67802.62
871.7	67818.62
871.943	67985.62
872.186	68037.62
872.429	68001.62
872.672	67926.62
872.915	67869.62
873.158	67678.62
873.4	67801.62
873.643	67480.62
873.886	67208.62
874.128	67142.62
874.371	66599.62
874.613	66817.62
874.856	66337.62
875.098	66012.62
875.341	65930.62
875.583	65807.62
875.825	65690.62
876.068	65141.62
876.31	64514.62
876.552	64110.62
876.794	63678.62
877.036	63010.62
877.278	62617.62
877.52	62305.62
877.762	62166.62
878.004	61938.62
878.246	61908.62
878.488	61637.62
878.73	61603.62
878.972	61448.62
879.213	61479.62
879.455	61290.62
879.697	61338.62
879.938	60979.62
880.18	60791.62
880.421	60564.62
880.663	60149.62
880.904	60165.62
881.145	60111.62
881.387	59924.62
881.628	59960.62
881.869	59701.62
882.11	59767.62
882.352	59345.62
882.593	59303.62
882.834	59488.62
883.075	59056.62
883.316	58932.62
883.557	58698.62
883.797	58562.62
884.038	57989.62
884.279	57429.62
884.52	56888.62
884.761	56390.62
885.001	55905.62
885.242	55374.62
885.482	54966.62
885.723	54742.62
885.963	54580.62
886.204	54426.62
886.444	54120.62
886.685	53962.62
886.925	53854.62
887.165	53562.62
887.405	53319.62
887.646	53260.62
887.886	53065.62
888.126	52876.62
888.366	52888.62
888.606	52765.62
888.846	53142.62
889.086	53176.62
889.326	52974.62
889.565	53096.62
889.805	52997.62
890.045	52671.62
890.285	52516.62
890.524	52545.62
890.764	52204.62
891.003	51779.62
891.243	51209.62
891.482	50811.62
891.722	50353.62
891.961	50175.62
892.201	49867.62
892.44	49612.62
892.679	49227.62
892.918	48863.62
893.158	48741.62
893.397	48731.62
893.636	48586.62
893.875	48467.62
894.114	47963.62
894.353	47935.62
894.592	47731.62
894.831	47613.62
895.069	47266.62
895.308	47145.62
895.547	46727.62
895.786	46588.62
896.024	46439.62
896.263	46278.62
896.501	46241.62
896.74	46061.62
896.978	46093.62
897.217	45975.62
897.455	45825.62
897.694	45774.62
897.932	45670.62
898.17	45351.62
898.408	45278.62
898.646	44966.62
898.885	44770.62
899.123	44414.62
899.361	44240.62
899.599	44044.62
899.837	43748.62
900.075	43514.62
900.312	43160.62
900.55	42838.62
900.788	42335.62
901.026	41770.62
901.263	41679.62
901.501	41458.62
901.739	41144.62
901.976	40799.62
902.214	40624.62
902.451	40485.62
902.689	40581.62
902.926	40486.62
903.163	40247.62
903.401	40356.62
903.638	40313.62
903.875	40071.62
904.112	40194.62
904.349	40199.62
904.586	39851.62
904.823	39782.62
905.06	39475.62
905.297	39414.62
905.534	39012.62
905.771	38514.62
906.008	38442.62
906.245	38254.62
906.481	38090.62
906.718	37786.62
906.955	37554.62
907.191	37491.62
907.428	37143.62
907.664	36957.62
907.901	36854.62
908.137	36847.62
908.374	36687.62
908.61	36481.62
908.846	36431.62
909.083	36121.62
909.319	36004.62
909.555	35678.62
909.791	35343.62
910.027	35044.62
910.263	34903.62
910.499	34620.62
910.735	34325.62
910.971	34047.62
911.207	33870.62
911.443	33609.62
911.678	33481.62
911.914	33247.62
912.15	33335.62
912.385	33150.62
912.621	33105.62
912.857	33133.62
913.092	33181.62
913.328	32831.62
913.563	32843.62
913.798	32883.62
914.034	32776.62
914.269	32707.62
914.504	32532.62
914.739	32292.62
914.975	32201.62
915.21	32073.62
915.445	31753.62
915.68	31519.62
915.915	31155.62
916.15	30830.62
916.384	30493.62
916.619	30177.62
916.854	29956.62
917.089	29652.62
917.324	29669.62
917.558	29405.62
917.793	29319.62
918.028	29113.62
918.262	29026.62
918.497	28886.62
918.731	28976.62
918.965	28827.62
919.2	28782.62
919.434	28831.62
919.668	28610.62
919.903	28432.62
920.137	28328.62
920.371	28370.62
920.605	28017.62
920.839	27975.62
921.073	27650.62
921.307	27412.62
921.541	27257.62
921.775	27020.62
922.009	27012.62
922.243	26901.62
922.476	26876.62
922.71	26800.62
922.944	26749.62
923.177	26644.62
923.411	26706.62
923.644	26496.62
923.878	26385.62
924.111	26291.62
924.345	26075.62
924.578	26181.62
924.811	26067.62
925.045	25788.62
925.278	25546.62
925.511	25399.62
925.744	25221.62
925.977	24917.62
926.21	24868.62
926.443	24669.62
926.676	24404.62
926.909	24098.62
927.142	24015.62
927.375	23856.62
927.608	23547.62
927.841	23532.62
928.073	23369.62
928.306	23380.62
928.539	23420.62
928.771	23230.62
929.004	23261.62
929.236	23137.62
929.469	23206.62
929.701	23334.62
929.933	23145.62
930.166	23167.62
930.398	23108.62
930.63	23107.62
930.862	23125.62
931.094	22799.62
931.327	22764.62
931.559	22486.62
931.791	22438.62
932.023	22254.62
932.255	22138.62
932.486	21895.62
932.718	21734.62
932.95	21621.62
933.182	21427.62
933.413	21467.62
933.645	21350.62
933.877	21092.62
934.108	21067.62
934.34	20917.62
934.571	20865.62
934.803	20849.62
935.034	20710.62
935.265	20677.62
935.497	20538.62
935.728	20489.62
935.959	20375.62
936.19	20377.62
936.422	20147.62
936.653	19970.62
936.884	19923.62
937.115	19715.62
937.346	19728.62
937.577	19611.62
937.807	19349.62
938.038	19383.62
938.269	19337.62
938.5	19275.62
938.73	19192.62
938.961	19095.62
939.192	18973.62
939.422	18998.62
939.653	18959.62
939.883	19005.62
940.114	18913.62
940.344	18793.62
940.574	18750.62
940.805	18714.62
941.035	18508.62
941.265	18450.62
941.495	18281.62
941.726	18097.62
941.956	17961.62
942.186	17839.62
942.416	17732.62
942.646	17522.62
942.876	17391.62
943.105	17342.62
943.335	17184.62
943.565	17019.62
943.795	16838.62
944.024	16741.62
944.254	16656.62
944.484	16577.62
944.713	16508.62
944.943	16498.62
945.172	16264.62
945.402	16203.62
945.631	16211.62
945.86	16132.62
946.09	16137.62
946.319	16123.62
946.548	16121.62
946.777	15981.62
947.006	15901.62
947.235	15876.62
947.465	15807.62
947.694	15788.62
947.922	15634.62
948.151	15483.62
948.38	15351.62
948.609	15213.62
948.838	15117.62
949.067	15065.62
949.295	14898.62
949.524	14818.62
949.752	14749.62
949.981	14690.62
950.21	14490.62
950.438	14445.62
950.666	14386.62
950.895	14280.62
951.123	14132.62
951.351	14058.62
951.58	14097.62
951.808	13919.62
952.036	13883.62
952.264	13877.62
952.492	13696.62
952.72	13642.62
952.948	13663.62
953.176	13460.62
953.404	13351.62
953.632	13217.62
953.86	13076.62
954.088	12999.62
954.315	12916.62
954.543	12824.62
954.771	12765.62
954.998	12765.62
955.226	12706.62
955.453	12665.62
955.681	12610.62
955.908	12477.62
956.135	12499.62
956.363	12435.62
956.59	12439.62
956.817	12331.62
957.045	12339.62
957.272	12274.62
957.499	12178.62
957.726	12146.62
957.953	12091.62
958.18	12025.62
958.407	12053.62
958.634	11915.62
958.861	11827.62
959.087	11747.62
959.314	11613.62
959.541	11621.62
959.767	11544.62
959.994	11385.62
960.221	11335.62
960.447	11235.62
960.674	11224.62
960.9	11077.62
961.127	11005.62
961.353	10904.62
961.579	10743.62
961.806	10721.62
962.032	10722.62
962.258	10632.62
962.484	10570.62
962.71	10528.62
962.936	10520.62
963.162	10464.62
963.388	10499.62
963.614	10413.62
963.84	10381.62
964.066	10365.62
964.292	10316.62
964.518	10308.62
964.743	10138.62
964.969	10191.62
965.195	10119.62
965.42	10011.62
965.646	10023.62
965.871	9988.62
966.097	9905.62
966.322	9847.62
966.547	9811.62
966.773	9752.62
966.998	9697.62
967.223	9599.62
967.448	9562.62
967.674	9556.62
967.899	9442.62
968.124	9416.62
968.349	9368.62
968.574	9310.62
968.799	9187.62
969.024	9173.62
969.248	9178.62
969.473	9117.62
969.698	9040.62
969.923	9001.62
970.147	8930.62
970.372	8865.62
970.596	8780.62
970.821	8736.62
971.046	8699.62
971.27	8608.62
971.494	8596.62
971.719	8504.62
971.943	8390.62
972.167	8390.62
972.392	8328.62
972.616	8283.62
972.84	8271.62
973.064	8210.62
973.288	8145.62
973.512	8122.62
973.736	8065.62
973.96	8103.62
974.184	8043.62
974.408	8003.62
974.631	7994.62
974.855	7961.62
975.079	7889.62
975.303	7882.62
975.526	7843.62
975.75	7756.62
975.973	7821.62
976.197	7727.62
976.42	7691.62
976.644	7621.62
976.867	7579.62
977.09	7518.62
977.313	7481.62
977.537	7439.62
977.76	7322.62
977.983	7246.62
978.206	7314.62
978.429	7255.62
978.652	7162.62
978.875	7153.62
979.098	7029.62
979.321	6963.62
979.544	6951.62
979.767	6927.62
979.989	6878.62
980.212	6822.62
980.435	6839.62
980.657	6731.62
980.88	6692.62
981.102	6673.62
981.325	6607.62
981.547	6620.62
981.77	6555.62
981.992	6518.62
982.214	6542.62
982.437	6446.62
982.659	6475.62
982.881	6431.62
983.103	6375.62
983.325	6368.62
983.547	6304.62
983.769	6325.62
983.991	6314.62
984.213	6224.62
984.435	6238.62
984.657	6169.62
984.879	6101.62
985.1	6106.62
985.322	6076.62
985.544	6073.62
985.765	6054.62
985.987	6003.62
986.208	5856.62
986.43	5875.62
986.651	5845.62
986.873	5821.62
987.094	5775.62
987.315	5806.62
987.536	5715.62
987.758	5663.62
987.979	5661.62
988.2	5591.62
988.421	5527.62
988.642	5514.62
988.863	5486.62
989.084	5446.62
989.305	5364.62
989.526	5366.62
989.747	5313.62
989.967	5329.62
990.188	5282.62
990.409	5246.62
990.629	5216.62
990.85	5160.62
991.071	5098.62
991.291	5079.62
991.512	5002.62
991.732	4986.62
991.952	4982.62
992.173	4958.62
992.393	4920.62
992.613	4921.62
992.834	4961.62
993.054	4896.62
993.274	4886.62
993.494	4884.62
993.714	4782.62
993.934	4819.62
994.154	4798.62
994.374	4782.62
994.594	4752.62
994.813	4713.62
995.033	4704.62
995.253	4629.62
995.473	4619.62
995.692	4582.62
995.912	4598.62
996.131	4534.62
996.351	4491.62
996.57	4450.62
996.79	4415.62
997.009	4409.62
997.228	4338.62
997.448	4305.62
997.667	4265.62
997.886	4232.62
998.105	4197.62
998.325	4163.62
998.544	4099.62
998.763	4124.62
998.982	4091.62
999.201	4077.62
999.419	4014.62
999.638	4013.62
999.857	3978.62
1000.076	3973.62
1000.295	3985.62
1000.513	3929.62
1000.732	3914.62
1000.95	3861.62
1001.169	3843.62
1001.388	3831.62
1001.606	3814.62
1001.824	3837.62
1002.043	3780.62
1002.261	3753.62
1002.479	3747.62
1002.698	3690.62
1002.916	3754.62
1003.134	3702.62
1003.352	3683.62
1003.57	3620.62
1003.788	3608.62
1004.006	3578.62
1004.224	3598.62
1004.442	3512.62
1004.66	3511.62
1004.878	3480.62
1005.095	3466.62
1005.313	3480.62
1005.531	3439.62
1005.748	3440.62
1005.966	3426.62
1006.184	3442.62
1006.401	3374.62
1006.618	3329.62
1006.836	3345.62
1007.053	3298.62
1007.271	3305.62
1007.488	3289.62
1007.705	3254.62
1007.922	3240.62
1008.139	3184.62
1008.357	3233.62
1008.574	3228.62
1008.791	3219.62
1009.008	3204.62
1009.225	3175.62
1009.441	3180.62
1009.658	3154.62
1009.875	3107.62
1010.092	3131.62
1010.309	3097.62
1010.525	3068.62
1010.742	3028.62
1010.958	2989.62
1011.175	3036.62
1011.391	3003.62
1011.608	2933.62
1011.824	2947.62
1012.041	2903.62
1012.257	2860.62
1012.473	2825.62
1012.689	2832.62
1012.906	2822.62
1013.122	2795.62
1013.338	2773.62
1013.554	2764.62
1013.77	2777.62
1013.986	2763.62
1014.202	2755.62
1014.418	2780.62
1014.634	2786.62
1014.849	2788.62
1015.065	2804.62
1015.281	2803.62
1015.496	2762.62
1015.712	2718.62
1015.928	2702.62
1016.143	2640.62
1016.359	2658.62
1016.574	2612.62
1016.79	2584.62
1017.005	2590.62
1017.22	2524.62
1017.435	2469.62
1017.651	2442.62
1017.866	2398.62
1018.081	2347.62
1018.296	2332.62
1018.511	2336.62
1018.726	2286.62
1018.941	2294.62
1019.156	2234.62
1019.371	2238.62
1019.586	2187.62
1019.801	2235.62
1020.015	2179.62
1020.23	2188.62
1020.445	2161.62
1020.659	2137.62
1020.874	2140.62
1021.088	2062.62
1021.303	2077.62
1021.517	2070.62
1021.732	1986.62
1021.946	2019.62
1022.16	2015.62
1022.375	2015.62
1022.589	1966.62
1022.803	1944.62
1023.017	1860.62
1023.231	1856.62
1023.445	1819.62
1023.659	1817.62
1023.873	1786.62
1024.087	1735.62
1024.301	1690.62
1024.515	1659.62
1024.729	1674.62
1024.942	1630.62
1025.156	1587.62
1025.37	1573.62
1025.583	1557.62
1025.797	1505.62
1026.01	1515.62
1026.224	1437.62
1026.437	1393.62
1026.651	1385.62
1026.864	1294.62
1027.077	1289.62
1027.291	1264.62
1027.504	1238.62
1027.717	1185.62
1027.93	1184.62
1028.143	1141.62
1028.356	1093.62
1028.569	1043.62
1028.782	972.62
1028.995	-1.38
1029.208	0.62
1029.421	-2.38
1029.634	-2.38
