Data from QEP037381__577__16-12-53-288.txt Node

Date: Mon Mar 14 16:12:53 EDT 2022
User: dcclab
Spectrometer: QEP03738
Trigger mode: 4
Integration Time (sec): 1.000000E0
Scans to average: 1
Electric dark correction enabled: true
Nonlinearity correction enabled: false
Boxcar width: 0
XAxis mode: Wavelengths
Number of Pixels in Spectrum: 1044
>>>>>Begin Spectral Data<<<<<
783.959	15.38
784.218	-2.62
784.476	-1.62
784.734	-1.62
784.992	200.38
785.251	197.38
785.509	203.38
785.767	206.38
786.025	201.38
786.283	205.38
786.541	206.38
786.798	207.38
787.056	206.38
787.314	212.38
787.572	219.38
787.83	212.38
788.087	217.38
788.345	221.38
788.602	233.38
788.86	235.38
789.117	242.38
789.375	223.38
789.632	247.38
789.89	244.38
790.147	257.38
790.404	250.38
790.661	259.38
790.919	274.38
791.176	274.38
791.433	272.38
791.69	286.38
791.947	284.38
792.204	297.38
792.461	295.38
792.718	311.38
792.974	330.38
793.231	327.38
793.488	365.38
793.745	366.38
794.001	379.38
794.258	397.38
794.514	408.38
794.771	439.38
795.027	457.38
795.284	472.38
795.54	526.38
795.797	578.38
796.053	605.38
796.309	666.38
796.565	758.38
796.822	830.38
797.078	944.38
797.334	1099.38
797.59	1329.38
797.846	1663.38
798.102	2199.38
798.358	2978.38
798.614	4306.38
798.869	6331.38
799.125	9341.38
799.381	13694.38
799.637	19490.38
799.892	26453.38
800.148	34062.38
800.403	41652.38
800.659	47913.38
800.914	52953.38
801.17	56464.38
801.425	58860.38
801.68	60323.38
801.936	61928.38
802.191	63241.38
802.446	64387.38
802.701	65707.38
802.957	67116.38
803.212	68387.38
803.467	69731.38
803.722	70977.38
803.977	72378.38
804.232	73665.38
804.486	75154.38
804.741	76682.38
804.996	77864.38
805.251	79041.38
805.505	80416.38
805.76	81750.38
806.015	82673.38
806.269	84009.38
806.524	85069.38
806.778	85820.38
807.033	86167.38
807.287	87224.38
807.541	88343.38
807.796	89343.38
808.05	90340.38
808.304	91237.38
808.558	91831.38
808.812	92316.38
809.066	93189.38
809.32	93555.38
809.574	94260.38
809.828	94914.38
810.082	95247.38
810.336	96313.38
810.59	97097.38
810.844	98128.38
811.097	99244.38
811.351	100317.38
811.605	102097.38
811.858	103603.38
812.112	105592.38
812.365	107000.38
812.619	108439.38
812.872	110054.38
813.126	111415.38
813.379	112715.38
813.632	114163.38
813.885	115581.38
814.139	117253.38
814.392	118724.38
814.645	120742.38
814.898	122965.38
815.151	125084.38
815.404	127106.38
815.657	129296.38
815.91	130998.38
816.163	132502.38
816.416	133906.38
816.668	134568.38
816.921	135352.38
817.174	135741.38
817.426	135732.38
817.679	135573.38
817.931	135596.38
818.184	135654.38
818.436	135432.38
818.689	135225.38
818.941	135436.38
819.194	135580.38
819.446	136129.38
819.698	136883.38
819.95	137415.38
820.202	137781.38
820.455	138160.38
820.707	138207.38
820.959	138439.38
821.211	138541.38
821.462	138563.38
821.714	137961.38
821.966	137100.38
822.218	136470.38
822.47	135731.38
822.722	135247.38
822.973	134641.38
823.225	133965.38
823.476	133914.38
823.728	133985.38
823.979	134102.38
824.231	134226.38
824.482	134075.38
824.734	133987.38
824.985	133729.38
825.236	133690.38
825.487	133006.38
825.739	132557.38
825.99	132327.38
826.241	131803.38
826.492	131089.38
826.743	130140.38
826.994	129842.38
827.245	129140.38
827.496	128748.38
827.747	128566.38
827.997	128506.38
828.248	128524.38
828.499	128670.38
828.75	128528.38
829	128483.38
829.251	128452.38
829.501	128174.38
829.752	127471.38
830.002	126558.38
830.253	125752.38
830.503	125231.38
830.753	124297.38
831.004	123331.38
831.254	122736.38
831.504	122662.38
831.754	122297.38
832.004	121796.38
832.254	122043.38
832.504	121850.38
832.754	121943.38
833.004	121773.38
833.254	121299.38
833.504	121046.38
833.754	120750.38
834.003	120434.38
834.253	119809.38
834.503	119235.38
834.752	118550.38
835.002	117511.38
835.252	116612.38
835.501	116179.38
835.75	116015.38
836	115785.38
836.249	115522.38
836.499	115362.38
836.748	114908.38
836.997	115142.38
837.246	114808.38
837.495	114991.38
837.744	115197.38
837.993	115061.38
838.242	115022.38
838.491	114423.38
838.74	113617.38
838.989	112989.38
839.238	112166.38
839.487	111659.38
839.736	111068.38
839.984	110560.38
840.233	110096.38
840.482	109569.38
840.73	109133.38
840.979	108534.38
841.227	108293.38
841.476	108059.38
841.724	107876.38
841.972	107289.38
842.221	106902.38
842.469	106517.38
842.717	106118.38
842.965	105738.38
843.213	105450.38
843.461	105283.38
843.71	104532.38
843.958	104080.38
844.205	103714.38
844.453	103514.38
844.701	103646.38
844.949	103294.38
845.197	103019.38
845.445	103131.38
845.692	103251.38
845.94	103236.38
846.188	102873.38
846.435	102758.38
846.683	102461.38
846.93	102155.38
847.178	101675.38
847.425	100705.38
847.672	100355.38
847.92	99136.38
848.167	98249.38
848.414	97038.38
848.661	96619.38
848.908	96051.38
849.155	95645.38
849.402	95515.38
849.649	95263.38
849.896	95509.38
850.143	95603.38
850.39	96291.38
850.637	96178.38
850.884	96159.38
851.131	95983.38
851.377	95928.38
851.624	95573.38
851.87	95171.38
852.117	94382.38
852.364	93787.38
852.61	93307.38
852.856	93133.38
853.103	92347.38
853.349	92375.38
853.595	92050.38
853.842	91454.38
854.088	91432.38
854.334	91540.38
854.58	91509.38
854.826	91052.38
855.072	90578.38
855.318	89661.38
855.564	88680.38
855.81	88167.38
856.056	87285.38
856.302	86676.38
856.548	85953.38
856.793	85601.38
857.039	85327.38
857.285	85147.38
857.53	85142.38
857.776	85146.38
858.021	85519.38
858.267	85744.38
858.512	85935.38
858.758	85837.38
859.003	85805.38
859.248	86021.38
859.493	85758.38
859.739	85239.38
859.984	85132.38
860.229	84650.38
860.474	84304.38
860.719	83845.38
860.964	83121.38
861.209	82604.38
861.454	82287.38
861.699	81358.38
861.943	81348.38
862.188	80843.38
862.433	80519.38
862.678	80186.38
862.922	79780.38
863.167	79741.38
863.411	79521.38
863.656	79262.38
863.9	78985.38
864.145	78859.38
864.389	78571.38
864.634	78144.38
864.878	78072.38
865.122	77496.38
865.366	77358.38
865.61	77052.38
865.855	76809.38
866.099	76748.38
866.343	76540.38
866.587	76077.38
866.831	76088.38
867.074	76095.38
867.318	76145.38
867.562	75957.38
867.806	76040.38
868.05	75858.38
868.293	75598.38
868.537	75301.38
868.78	75171.38
869.024	74633.38
869.267	74278.38
869.511	73634.38
869.754	73021.38
869.998	72460.38
870.241	71783.38
870.484	71206.38
870.728	70945.38
870.971	70336.38
871.214	70058.38
871.457	69991.38
871.7	69765.38
871.943	69899.38
872.186	69828.38
872.429	70236.38
872.672	69999.38
872.915	69874.38
873.158	69561.38
873.4	69789.38
873.643	69438.38
873.886	69204.38
874.128	69110.38
874.371	68738.38
874.613	68603.38
874.856	68414.38
875.098	68058.38
875.341	68051.38
875.583	67720.38
875.825	67523.38
876.068	67168.38
876.31	66719.38
876.552	65957.38
876.794	65662.38
877.036	65094.38
877.278	64612.38
877.52	64504.38
877.762	63851.38
878.004	63572.38
878.246	63709.38
878.488	63826.38
878.73	63681.38
878.972	63354.38
879.213	63466.38
879.455	63307.38
879.697	63071.38
879.938	62761.38
880.18	62587.38
880.421	62320.38
880.663	62166.38
880.904	61780.38
881.145	61678.38
881.387	61826.38
881.628	61760.38
881.869	61486.38
882.11	61408.38
882.352	61345.38
882.593	61135.38
882.834	61174.38
883.075	60905.38
883.316	60772.38
883.557	60512.38
883.797	60388.38
884.038	59760.38
884.279	59044.38
884.52	58589.38
884.761	58159.38
885.001	57628.38
885.242	57192.38
885.482	56864.38
885.723	56529.38
885.963	56524.38
886.204	56170.38
886.444	55970.38
886.685	55768.38
886.925	55408.38
887.165	55205.38
887.405	54942.38
887.646	54966.38
887.886	54778.38
888.126	54576.38
888.366	54476.38
888.606	54528.38
888.846	54731.38
889.086	54724.38
889.326	54931.38
889.565	54759.38
889.805	54694.38
890.045	54443.38
890.285	54303.38
890.524	54210.38
890.764	54290.38
891.003	53473.38
891.243	52908.38
891.482	52380.38
891.722	52074.38
891.961	51723.38
892.201	51498.38
892.44	50968.38
892.679	50803.38
892.918	50468.38
893.158	50577.38
893.397	50534.38
893.636	50010.38
893.875	49958.38
894.114	49808.38
894.353	49621.38
894.592	49428.38
894.831	48825.38
895.069	48879.38
895.308	48529.38
895.547	48281.38
895.786	48045.38
896.024	47743.38
896.263	47628.38
896.501	47749.38
896.74	47624.38
896.978	47383.38
897.217	47500.38
897.455	47492.38
897.694	47260.38
897.932	47116.38
898.17	46825.38
898.408	46574.38
898.646	46438.38
898.885	46082.38
899.123	45946.38
899.361	45630.38
899.599	45378.38
899.837	44931.38
900.075	45050.38
900.312	44536.38
900.55	44243.38
900.788	43695.38
901.026	43327.38
901.263	42834.38
901.501	42690.38
901.739	42395.38
901.976	42107.38
902.214	42076.38
902.451	41726.38
902.689	41707.38
902.926	41686.38
903.163	41609.38
903.401	41625.38
903.638	41625.38
903.875	41580.38
904.112	41517.38
904.349	41367.38
904.586	41184.38
904.823	40978.38
905.06	40910.38
905.297	40584.38
905.534	40209.38
905.771	39865.38
906.008	39673.38
906.245	39545.38
906.481	39358.38
906.718	39046.38
906.955	38732.38
907.191	38580.38
907.428	38429.38
907.664	38265.38
907.901	38141.38
908.137	37937.38
908.374	37752.38
908.61	37803.38
908.846	37540.38
909.083	37268.38
909.319	37091.38
909.555	36828.38
909.791	36608.38
910.027	36288.38
910.263	35943.38
910.499	35773.38
910.735	35463.38
910.971	35194.38
911.207	34969.38
911.443	34701.38
911.678	34475.38
911.914	34473.38
912.15	34430.38
912.385	34229.38
912.621	34378.38
912.857	34111.38
913.092	34184.38
913.328	34111.38
913.563	33975.38
913.798	33951.38
914.034	33905.38
914.269	33709.38
914.504	33747.38
914.739	33628.38
914.975	33380.38
915.21	33074.38
915.445	32953.38
915.68	32608.38
915.915	32302.38
916.15	31826.38
916.384	31535.38
916.619	31169.38
916.854	30925.38
917.089	30808.38
917.324	30683.38
917.558	30306.38
917.793	30172.38
918.028	30096.38
918.262	30065.38
918.497	29983.38
918.731	29906.38
918.965	29850.38
919.2	29678.38
919.434	29689.38
919.668	29588.38
919.903	29605.38
920.137	29405.38
920.371	29193.38
920.605	29035.38
920.839	28873.38
921.073	28614.38
921.307	28411.38
921.541	28118.38
921.775	28121.38
922.009	27922.38
922.243	27929.38
922.476	27882.38
922.71	27748.38
922.944	27703.38
923.177	27650.38
923.411	27511.38
923.644	27441.38
923.878	27363.38
924.111	27333.38
924.345	27108.38
924.578	27027.38
924.811	27011.38
925.045	26551.38
925.278	26524.38
925.511	26314.38
925.744	26006.38
925.977	25880.38
926.21	25660.38
926.443	25468.38
926.676	25248.38
926.909	25019.38
927.142	24968.38
927.375	24787.38
927.608	24438.38
927.841	24375.38
928.073	24203.38
928.306	24165.38
928.539	24100.38
928.771	24090.38
929.004	24216.38
929.236	24004.38
929.469	23961.38
929.701	23989.38
929.933	24087.38
930.166	24031.38
930.398	23971.38
930.63	24011.38
930.862	23872.38
931.094	23685.38
931.327	23424.38
931.559	23466.38
931.791	23321.38
932.023	23085.38
932.255	22826.38
932.486	22623.38
932.718	22571.38
932.95	22345.38
933.182	22301.38
933.413	22201.38
933.645	22042.38
933.877	21934.38
934.108	21843.38
934.34	21687.38
934.571	21730.38
934.803	21499.38
935.034	21522.38
935.265	21399.38
935.497	21210.38
935.728	21278.38
935.959	21038.38
936.19	20971.38
936.422	20878.38
936.653	20738.38
936.884	20742.38
937.115	20481.38
937.346	20377.38
937.577	20326.38
937.807	20176.38
938.038	19963.38
938.269	19995.38
938.5	19933.38
938.73	19863.38
938.961	19832.38
939.192	19824.38
939.422	19808.38
939.653	19702.38
939.883	19746.38
940.114	19683.38
940.344	19600.38
940.574	19510.38
940.805	19362.38
941.035	19222.38
941.265	19057.38
941.495	18895.38
941.726	18836.38
941.956	18720.38
942.186	18532.38
942.416	18367.38
942.646	18276.38
942.876	18206.38
943.105	17949.38
943.335	17829.38
943.565	17700.38
943.795	17577.38
944.024	17421.38
944.254	17259.38
944.484	17201.38
944.713	17108.38
944.943	17107.38
945.172	16890.38
945.402	16811.38
945.631	16866.38
945.86	16829.38
946.09	16721.38
946.319	16771.38
946.548	16701.38
946.777	16618.38
947.006	16613.38
947.235	16550.38
947.465	16489.38
947.694	16454.38
947.922	16295.38
948.151	16137.38
948.38	15932.38
948.609	15776.38
948.838	15769.38
949.067	15708.38
949.295	15545.38
949.524	15434.38
949.752	15303.38
949.981	15237.38
950.21	15180.38
950.438	15109.38
950.666	14946.38
950.895	14967.38
951.123	14784.38
951.351	14603.38
951.58	14634.38
951.808	14519.38
952.036	14550.38
952.264	14379.38
952.492	14304.38
952.72	14149.38
952.948	14126.38
953.176	14030.38
953.404	13892.38
953.632	13772.38
953.86	13690.38
954.088	13594.38
954.315	13449.38
954.543	13415.38
954.771	13241.38
954.998	13226.38
955.226	13157.38
955.453	13115.38
955.681	13132.38
955.908	13061.38
956.135	12952.38
956.363	12972.38
956.59	12833.38
956.817	12862.38
957.045	12737.38
957.272	12787.38
957.499	12762.38
957.726	12634.38
957.953	12613.38
958.18	12474.38
958.407	12456.38
958.634	12423.38
958.861	12334.38
959.087	12167.38
959.314	12141.38
959.541	12122.38
959.767	12001.38
959.994	11830.38
960.221	11792.38
960.447	11627.38
960.674	11503.38
960.9	11504.38
961.127	11420.38
961.353	11322.38
961.579	11238.38
961.806	11245.38
962.032	11108.38
962.258	11063.38
962.484	11058.38
962.71	10972.38
962.936	10884.38
963.162	10907.38
963.388	10817.38
963.614	10926.38
963.84	10850.38
964.066	10789.38
964.292	10790.38
964.518	10644.38
964.743	10619.38
964.969	10581.38
965.195	10537.38
965.42	10463.38
965.646	10399.38
965.871	10371.38
966.097	10347.38
966.322	10311.38
966.547	10163.38
966.773	10114.38
966.998	9996.38
967.223	10063.38
967.448	10027.38
967.674	9868.38
967.899	9874.38
968.124	9780.38
968.349	9698.38
968.574	9615.38
968.799	9664.38
969.024	9623.38
969.248	9461.38
969.473	9431.38
969.698	9435.38
969.923	9351.38
970.147	9246.38
970.372	9227.38
970.596	9149.38
970.821	9099.38
971.046	9009.38
971.27	9063.38
971.494	8925.38
971.719	8882.38
971.943	8803.38
972.167	8735.38
972.392	8718.38
972.616	8643.38
972.84	8635.38
973.064	8614.38
973.288	8500.38
973.512	8511.38
973.736	8377.38
973.96	8456.38
974.184	8403.38
974.408	8308.38
974.631	8271.38
974.855	8294.38
975.079	8255.38
975.303	8167.38
975.526	8196.38
975.75	8133.38
975.973	8111.38
976.197	8042.38
976.42	8016.38
976.644	8027.38
976.867	7877.38
977.09	7860.38
977.313	7750.38
977.537	7681.38
977.76	7701.38
977.983	7633.38
978.206	7566.38
978.429	7548.38
978.652	7486.38
978.875	7400.38
979.098	7385.38
979.321	7305.38
979.544	7283.38
979.767	7265.38
979.989	7178.38
980.212	7069.38
980.435	7099.38
980.657	7052.38
980.88	7037.38
981.102	6958.38
981.325	6941.38
981.547	6929.38
981.77	6852.38
981.992	6836.38
982.214	6832.38
982.437	6751.38
982.659	6736.38
982.881	6692.38
983.103	6734.38
983.325	6609.38
983.547	6615.38
983.769	6600.38
983.991	6532.38
984.213	6547.38
984.435	6457.38
984.657	6436.38
984.879	6423.38
985.1	6368.38
985.322	6347.38
985.544	6296.38
985.765	6302.38
985.987	6242.38
986.208	6247.38
986.43	6146.38
986.651	6133.38
986.873	6143.38
987.094	6076.38
987.315	6020.38
987.536	5956.38
987.758	5911.38
987.979	5809.38
988.2	5821.38
988.421	5833.38
988.642	5736.38
988.863	5679.38
989.084	5656.38
989.305	5666.38
989.526	5603.38
989.747	5549.38
989.967	5536.38
990.188	5496.38
990.409	5424.38
990.629	5445.38
990.85	5365.38
991.071	5329.38
991.291	5313.38
991.512	5243.38
991.732	5254.38
991.952	5199.38
992.173	5136.38
992.393	5171.38
992.613	5132.38
992.834	5132.38
993.054	5134.38
993.274	5066.38
993.494	5058.38
993.714	5051.38
993.934	5043.38
994.154	5002.38
994.374	4997.38
994.594	4939.38
994.813	4955.38
995.033	4965.38
995.253	4888.38
995.473	4852.38
995.692	4805.38
995.912	4728.38
996.131	4766.38
996.351	4719.38
996.57	4624.38
996.79	4575.38
997.009	4552.38
997.228	4564.38
997.448	4495.38
997.667	4439.38
997.886	4415.38
998.105	4385.38
998.325	4356.38
998.544	4310.38
998.763	4299.38
998.982	4245.38
999.201	4214.38
999.419	4193.38
999.638	4220.38
999.857	4126.38
1000.076	4128.38
1000.295	4115.38
1000.513	4066.38
1000.732	4075.38
1000.95	4033.38
1001.169	4080.38
1001.388	3994.38
1001.606	4027.38
1001.824	3964.38
1002.043	3957.38
1002.261	3928.38
1002.479	3908.38
1002.698	3914.38
1002.916	3845.38
1003.134	3856.38
1003.352	3797.38
1003.57	3784.38
1003.788	3759.38
1004.006	3804.38
1004.224	3744.38
1004.442	3719.38
1004.66	3669.38
1004.878	3669.38
1005.095	3626.38
1005.313	3641.38
1005.531	3627.38
1005.748	3571.38
1005.966	3575.38
1006.184	3529.38
1006.401	3525.38
1006.618	3502.38
1006.836	3430.38
1007.053	3426.38
1007.271	3403.38
1007.488	3390.38
1007.705	3398.38
1007.922	3403.38
1008.139	3369.38
1008.357	3340.38
1008.574	3322.38
1008.791	3319.38
1009.008	3323.38
1009.225	3310.38
1009.441	3340.38
1009.658	3279.38
1009.875	3324.38
1010.092	3246.38
1010.309	3218.38
1010.525	3213.38
1010.742	3179.38
1010.958	3127.38
1011.175	3125.38
1011.391	3081.38
1011.608	3093.38
1011.824	3025.38
1012.041	2992.38
1012.257	3017.38
1012.473	2962.38
1012.689	2934.38
1012.906	2872.38
1013.122	2921.38
1013.338	2891.38
1013.554	2868.38
1013.77	2855.38
1013.986	2845.38
1014.202	2863.38
1014.418	2897.38
1014.634	2887.38
1014.849	2915.38
1015.065	2921.38
1015.281	2885.38
1015.496	2868.38
1015.712	2836.38
1015.928	2782.38
1016.143	2774.38
1016.359	2753.38
1016.574	2701.38
1016.79	2664.38
1017.005	2636.38
1017.22	2607.38
1017.435	2578.38
1017.651	2577.38
1017.866	2513.38
1018.081	2461.38
1018.296	2419.38
1018.511	2406.38
1018.726	2361.38
1018.941	2350.38
1019.156	2328.38
1019.371	2348.38
1019.586	2316.38
1019.801	2309.38
1020.015	2263.38
1020.23	2242.38
1020.445	2212.38
1020.659	2229.38
1020.874	2176.38
1021.088	2192.38
1021.303	2157.38
1021.517	2166.38
1021.732	2085.38
1021.946	2138.38
1022.16	2104.38
1022.375	2039.38
1022.589	2032.38
1022.803	2023.38
1023.017	2015.38
1023.231	1957.38
1023.445	1926.38
1023.659	1867.38
1023.873	1809.38
1024.087	1819.38
1024.301	1780.38
1024.515	1737.38
1024.729	1721.38
1024.942	1685.38
1025.156	1645.38
1025.37	1628.38
1025.583	1624.38
1025.797	1593.38
1026.01	1519.38
1026.224	1508.38
1026.437	1482.38
1026.651	1413.38
1026.864	1384.38
1027.077	1358.38
1027.291	1330.38
1027.504	1282.38
1027.717	1272.38
1027.93	1212.38
1028.143	1193.38
1028.356	1163.38
1028.569	1081.38
1028.782	1011.38
1028.995	-3.62
1029.208	-1.62
1029.421	-0.62
1029.634	-3.62
