Data from QEP037381__610__16-13-26-289.txt Node

Date: Mon Mar 14 16:13:26 EDT 2022
User: dcclab
Spectrometer: QEP03738
Trigger mode: 4
Integration Time (sec): 1.000000E0
Scans to average: 1
Electric dark correction enabled: true
Nonlinearity correction enabled: false
Boxcar width: 0
XAxis mode: Wavelengths
Number of Pixels in Spectrum: 1044
>>>>>Begin Spectral Data<<<<<
783.959	13
784.218	-2
784.476	-3
784.734	-1
784.992	187
785.251	198
785.509	185
785.767	192
786.025	199
786.283	196
786.541	205
786.798	204
787.056	206
787.314	195
787.572	210
787.83	212
788.087	221
788.345	212
788.602	216
788.86	216
789.117	216
789.375	223
789.632	221
789.89	228
790.147	232
790.404	241
790.661	250
790.919	261
791.176	262
791.433	263
791.69	258
791.947	270
792.204	274
792.461	285
792.718	297
792.974	307
793.231	320
793.488	336
793.745	328
794.001	356
794.258	383
794.514	393
794.771	421
795.027	454
795.284	459
795.54	514
795.797	538
796.053	592
796.309	630
796.565	699
796.822	780
797.078	887
797.334	1049
797.59	1268
797.846	1568
798.102	2034
798.358	2814
798.614	4002
798.869	5958
799.125	8811
799.381	12997
799.637	18419
799.892	24989
800.148	32150
800.403	39264
800.659	45296
800.914	50022
801.17	53218
801.425	55208
801.68	56899
801.936	58225
802.191	59558
802.446	60662
802.701	62019
802.957	63060
803.212	64373
803.467	65770
803.722	66866
803.977	68087
804.232	69414
804.486	70856
804.741	72250
804.996	73447
805.251	74707
805.505	75865
805.76	76963
806.015	78225
806.269	79269
806.524	80317
806.778	80927
807.033	81105
807.287	82044
807.541	83245
807.796	84224
808.05	85276
808.304	85903
808.558	86489
808.812	87190
809.066	87624
809.32	88197
809.574	89040
809.828	89510
810.082	89903
810.336	90683
810.59	91612
810.844	92384
811.097	93667
811.351	95077
811.605	96449
811.858	97756
812.112	99451
812.365	100925
812.619	102474
812.872	103861
813.126	105189
813.379	106583
813.632	107873
813.885	109279
814.139	110533
814.392	112261
814.645	113914
814.898	116064
815.151	118160
815.404	120166
815.657	122155
815.91	123501
816.163	125280
816.416	126532
816.668	127296
816.921	127721
817.174	128125
817.426	128117
817.679	128025
817.931	127902
818.184	127595
818.436	127817
818.689	127701
818.941	127999
819.194	128494
819.446	128751
819.698	129171
819.95	129761
820.202	130209
820.455	130590
820.707	130861
820.959	130705
821.211	130849
821.462	130663
821.714	130187
821.966	129710
822.218	128993
822.47	128128
822.722	127810
822.973	127173
823.225	126863
823.476	126498
823.728	126281
823.979	126478
824.231	126413
824.482	126459
824.734	126831
824.985	126493
825.236	126409
825.487	125867
825.739	125615
825.99	124893
826.241	124606
826.492	123934
826.743	123166
826.994	122601
827.245	122266
827.496	121299
827.747	121054
827.997	121403
828.248	121619
828.499	121393
828.75	121292
829	121496
829.251	121121
829.501	121087
829.752	120344
830.002	119787
830.253	119037
830.503	118510
830.753	117409
831.004	116658
831.254	116165
831.504	115778
831.754	115602
832.004	115429
832.254	115271
832.504	115203
832.754	115378
833.004	115095
833.254	114573
833.504	114335
833.754	114152
834.003	113618
834.253	113251
834.503	112195
834.752	111694
835.002	111142
835.252	110262
835.501	109883
835.75	109513
836	109159
836.249	109180
836.499	108945
836.748	108903
836.997	108551
837.246	108788
837.495	108687
837.744	109078
837.993	108731
838.242	108760
838.491	108200
838.74	107376
838.989	106575
839.238	105934
839.487	105570
839.736	105021
839.984	104433
840.233	104061
840.482	103439
840.73	103069
840.979	102494
841.227	102145
841.476	101684
841.724	101757
841.972	101451
842.221	101068
842.469	100660
842.717	100374
842.965	100001
843.213	99513
843.461	99113
843.71	98827
843.958	98326
844.205	97852
844.453	98142
844.701	97946
844.949	97747
845.197	97443
845.445	97578
845.692	97691
845.94	97415
846.188	97361
846.435	97142
846.683	96944
846.93	96232
847.178	96007
847.425	95008
847.672	94392
847.92	93671
848.167	92973
848.414	91776
848.661	91240
848.908	90395
849.155	90290
849.402	90280
849.649	90018
849.896	90118
850.143	90473
850.39	90688
850.637	90901
850.884	90772
851.131	90576
851.377	90393
851.624	90014
851.87	89733
852.117	89219
852.364	88578
852.61	88057
852.856	87932
853.103	87457
853.349	87026
853.595	86758
853.842	86258
854.088	86091
854.334	86174
854.58	86262
854.826	85882
855.072	85347
855.318	84737
855.564	83811
855.81	83262
856.056	82621
856.302	81839
856.548	81437
856.793	80925
857.039	80599
857.285	80332
857.53	80313
857.776	80362
858.021	80654
858.267	80887
858.512	80953
858.758	80930
859.003	80962
859.248	81014
859.493	80746
859.739	80683
859.984	80266
860.229	79744
860.474	79296
860.719	78918
860.964	78460
861.209	78138
861.454	77233
861.699	76942
861.943	76632
862.188	76095
862.433	75818
862.678	75583
862.922	75417
863.167	75333
863.411	74754
863.656	74867
863.9	74568
864.145	74421
864.389	74017
864.634	73737
864.878	73381
865.122	73051
865.366	72839
865.61	72535
865.855	72791
866.099	72341
866.343	72144
866.587	72044
866.831	71938
867.074	71891
867.318	71702
867.562	71646
867.806	71618
868.05	71546
868.293	71328
868.537	70926
868.78	70835
869.024	70698
869.267	69930
869.511	69517
869.754	68963
869.998	68363
870.241	67719
870.484	67250
870.728	66651
870.971	66341
871.214	66053
871.457	65903
871.7	65782
871.943	65960
872.186	65715
872.429	65952
872.672	66017
872.915	65761
873.158	65717
873.4	65546
873.643	65480
873.886	65321
874.128	65031
874.371	64793
874.613	64574
874.856	64285
875.098	64185
875.341	64033
875.583	63877
875.825	63493
876.068	63327
876.31	62758
876.552	62279
876.794	61871
877.036	61350
877.278	60982
877.52	60855
877.762	60326
878.004	60072
878.246	59978
878.488	59868
878.73	59815
878.972	59659
879.213	59779
879.455	59678
879.697	59495
879.938	59109
880.18	58788
880.421	58652
880.663	58397
880.904	58397
881.145	58300
881.387	58244
881.628	58289
881.869	57998
882.11	58070
882.352	57767
882.593	57752
882.834	57633
883.075	57498
883.316	57310
883.557	57017
883.797	56686
884.038	56313
884.279	55735
884.52	55202
884.761	54765
885.001	54305
885.242	53858
885.482	53581
885.723	53103
885.963	53078
886.204	52876
886.444	52582
886.685	52491
886.925	52189
887.165	52009
887.405	51748
887.646	51693
887.886	51475
888.126	51201
888.366	51338
888.606	51383
888.846	51573
889.086	51760
889.326	51647
889.565	51637
889.805	51559
890.045	51239
890.285	50983
890.524	51040
890.764	50954
891.003	50334
891.243	49819
891.482	49354
891.722	48964
891.961	48587
892.201	48353
892.44	48086
892.679	47848
892.918	47531
893.158	47422
893.397	47353
893.636	47180
893.875	47019
894.114	46831
894.353	46578
894.592	46318
894.831	46236
895.069	46020
895.308	45709
895.547	45408
895.786	45120
896.024	45141
896.263	44946
896.501	44994
896.74	44912
896.978	44926
897.217	44810
897.455	44472
897.694	44365
897.932	44335
898.17	44033
898.408	43988
898.646	43724
898.885	43471
899.123	43322
899.361	42956
899.599	42668
899.837	42464
900.075	42327
900.312	41977
900.55	41629
900.788	41181
901.026	40920
901.263	40618
901.501	40271
901.739	39897
901.976	39732
902.214	39689
902.451	39456
902.689	39257
902.926	39300
903.163	39137
903.401	39155
903.638	39197
903.875	39078
904.112	39092
904.349	39103
904.586	38661
904.823	38787
905.06	38531
905.297	38144
905.534	37862
905.771	37596
906.008	37407
906.245	37245
906.481	37032
906.718	36658
906.955	36534
907.191	36385
907.428	36157
907.664	36000
907.901	36037
908.137	35757
908.374	35656
908.61	35548
908.846	35360
909.083	35163
909.319	35063
909.555	34611
909.791	34328
910.027	34213
910.263	33888
910.499	33695
910.735	33380
910.971	33028
911.207	32913
911.443	32913
911.678	32557
911.914	32379
912.15	32462
912.385	32274
912.621	32325
912.857	32234
913.092	32304
913.328	32021
913.563	32091
913.798	32045
914.034	31868
914.269	31936
914.504	31781
914.739	31587
914.975	31290
915.21	31125
915.445	30868
915.68	30579
915.915	30440
916.15	30009
916.384	29806
916.619	29398
916.854	29113
917.089	29033
917.324	28849
917.558	28651
917.793	28457
918.028	28327
918.262	28281
918.497	28178
918.731	28183
918.965	28193
919.2	27895
919.434	27988
919.668	27918
919.903	27826
920.137	27579
920.371	27444
920.605	27328
920.839	27118
921.073	26916
921.307	26799
921.541	26611
921.775	26357
922.009	26304
922.243	26370
922.476	26154
922.71	26089
922.944	26064
923.177	25941
923.411	25930
923.644	25860
923.878	25735
924.111	25647
924.345	25657
924.578	25472
924.811	25210
925.045	25167
925.278	24948
925.511	24776
925.744	24564
925.977	24322
926.21	24184
926.443	23891
926.676	23753
926.909	23582
927.142	23304
927.375	23194
927.608	23125
927.841	22895
928.073	22895
928.306	22754
928.539	22764
928.771	22802
929.004	22676
929.236	22604
929.469	22688
929.701	22635
929.933	22676
930.166	22649
930.398	22465
930.63	22485
930.862	22644
931.094	22287
931.327	22111
931.559	22091
931.791	21849
932.023	21630
932.255	21631
932.486	21283
932.718	21228
932.95	21090
933.182	20932
933.413	20810
933.645	20709
933.877	20710
934.108	20616
934.34	20476
934.571	20420
934.803	20320
935.034	20155
935.265	20075
935.497	19977
935.728	19954
935.959	19880
936.19	19734
936.422	19613
936.653	19535
936.884	19511
937.115	19412
937.346	19225
937.577	19011
937.807	18973
938.038	18788
938.269	18847
938.5	18802
938.73	18779
938.961	18627
939.192	18671
939.422	18701
939.653	18543
939.883	18499
940.114	18465
940.344	18481
940.574	18251
940.805	18188
941.035	18052
941.265	17943
941.495	17814
941.726	17641
941.956	17544
942.186	17399
942.416	17352
942.646	17114
942.876	16988
943.105	16875
943.335	16747
943.565	16621
943.795	16566
944.024	16312
944.254	16271
944.484	16184
944.713	16072
944.943	15973
945.172	15974
945.402	15928
945.631	15863
945.86	15819
946.09	15778
946.319	15718
946.548	15647
946.777	15723
947.006	15622
947.235	15572
947.465	15474
947.694	15286
947.922	15281
948.151	15132
948.38	15042
948.609	14837
948.838	14798
949.067	14803
949.295	14576
949.524	14553
949.752	14410
949.981	14216
950.21	14327
950.438	14153
950.666	13978
950.895	14003
951.123	13838
951.351	13726
951.58	13710
951.808	13659
952.036	13549
952.264	13440
952.492	13408
952.72	13325
952.948	13199
953.176	13121
953.404	13055
953.632	13023
953.86	12724
954.088	12709
954.315	12639
954.543	12593
954.771	12547
954.998	12471
955.226	12415
955.453	12354
955.681	12268
955.908	12251
956.135	12178
956.363	12220
956.59	12045
956.817	12033
957.045	12085
957.272	11939
957.499	11965
957.726	11934
957.953	11802
958.18	11721
958.407	11736
958.634	11656
958.861	11517
959.087	11526
959.314	11372
959.541	11307
959.767	11277
959.994	11120
960.221	11080
960.447	10954
960.674	10934
960.9	10780
961.127	10662
961.353	10659
961.579	10490
961.806	10538
962.032	10470
962.258	10415
962.484	10361
962.71	10340
962.936	10242
963.162	10247
963.388	10223
963.614	10229
963.84	10157
964.066	10118
964.292	10032
964.518	10014
964.743	10047
964.969	9967
965.195	9848
965.42	9842
965.646	9747
965.871	9667
966.097	9684
966.322	9646
966.547	9585
966.773	9590
966.998	9485
967.223	9441
967.448	9406
967.674	9325
967.899	9225
968.124	9213
968.349	9108
968.574	9119
968.799	9090
969.024	9015
969.248	8902
969.473	8938
969.698	8872
969.923	8771
970.147	8732
970.372	8666
970.596	8627
970.821	8522
971.046	8511
971.27	8485
971.494	8396
971.719	8251
971.943	8308
972.167	8218
972.392	8178
972.616	8168
972.84	8088
973.064	7977
973.288	8008
973.512	7899
973.736	7913
973.96	7855
974.184	7875
974.408	7798
974.631	7770
974.855	7825
975.079	7778
975.303	7756
975.526	7699
975.75	7654
975.973	7596
976.197	7540
976.42	7545
976.644	7463
976.867	7429
977.09	7326
977.313	7262
977.537	7280
977.76	7141
977.983	7155
978.206	7109
978.429	7086
978.652	7041
978.875	6987
979.098	6918
979.321	6865
979.544	6752
979.767	6752
979.989	6691
980.212	6669
980.435	6657
980.657	6567
980.88	6596
981.102	6563
981.325	6529
981.547	6488
981.77	6444
981.992	6386
982.214	6447
982.437	6351
982.659	6307
982.881	6312
983.103	6284
983.325	6249
983.547	6201
983.769	6152
983.991	6144
984.213	6082
984.435	6067
984.657	6061
984.879	6042
985.1	5950
985.322	5970
985.544	5883
985.765	5883
985.987	5873
986.208	5805
986.43	5803
986.651	5742
986.873	5733
987.094	5680
987.315	5647
987.536	5585
987.758	5545
987.979	5511
988.2	5467
988.421	5417
988.642	5414
988.863	5368
989.084	5334
989.305	5309
989.526	5267
989.747	5219
989.967	5199
990.188	5182
990.409	5092
990.629	5073
990.85	5065
991.071	5011
991.291	5017
991.512	4936
991.732	4873
991.952	4895
992.173	4883
992.393	4900
992.613	4801
992.834	4828
993.054	4815
993.274	4809
993.494	4745
993.714	4734
993.934	4735
994.154	4673
994.374	4625
994.594	4618
994.813	4582
995.033	4596
995.253	4602
995.473	4609
995.692	4500
995.912	4467
996.131	4427
996.351	4406
996.57	4407
996.79	4354
997.009	4307
997.228	4230
997.448	4217
997.667	4184
997.886	4187
998.105	4144
998.325	4088
998.544	4074
998.763	3993
998.982	3976
999.201	3970
999.419	3945
999.638	3908
999.857	3871
1000.076	3865
1000.295	3879
1000.513	3835
1000.732	3843
1000.95	3767
1001.169	3813
1001.388	3754
1001.606	3769
1001.824	3694
1002.043	3680
1002.261	3689
1002.479	3678
1002.698	3694
1002.916	3613
1003.134	3621
1003.352	3578
1003.57	3557
1003.788	3573
1004.006	3532
1004.224	3514
1004.442	3498
1004.66	3449
1004.878	3428
1005.095	3421
1005.313	3395
1005.531	3409
1005.748	3380
1005.966	3379
1006.184	3312
1006.401	3306
1006.618	3286
1006.836	3259
1007.053	3237
1007.271	3246
1007.488	3249
1007.705	3189
1007.922	3177
1008.139	3162
1008.357	3200
1008.574	3128
1008.791	3144
1009.008	3150
1009.225	3109
1009.441	3129
1009.658	3083
1009.875	3059
1010.092	3074
1010.309	3049
1010.525	3030
1010.742	3005
1010.958	2939
1011.175	2956
1011.391	2920
1011.608	2862
1011.824	2857
1012.041	2847
1012.257	2823
1012.473	2805
1012.689	2766
1012.906	2757
1013.122	2745
1013.338	2726
1013.554	2727
1013.77	2689
1013.986	2670
1014.202	2677
1014.418	2719
1014.634	2692
1014.849	2742
1015.065	2738
1015.281	2754
1015.496	2688
1015.712	2689
1015.928	2673
1016.143	2667
1016.359	2602
1016.574	2560
1016.79	2552
1017.005	2524
1017.22	2440
1017.435	2419
1017.651	2374
1017.866	2363
1018.081	2334
1018.296	2283
1018.511	2281
1018.726	2249
1018.941	2233
1019.156	2217
1019.371	2205
1019.586	2181
1019.801	2125
1020.015	2140
1020.23	2112
1020.445	2103
1020.659	2105
1020.874	2072
1021.088	2054
1021.303	1999
1021.517	2005
1021.732	1993
1021.946	1980
1022.16	1998
1022.375	1936
1022.589	1952
1022.803	1893
1023.017	1855
1023.231	1817
1023.445	1798
1023.659	1749
1023.873	1739
1024.087	1692
1024.301	1671
1024.515	1650
1024.729	1603
1024.942	1574
1025.156	1573
1025.37	1571
1025.583	1505
1025.797	1483
1026.01	1479
1026.224	1411
1026.437	1388
1026.651	1369
1026.864	1312
1027.077	1294
1027.291	1246
1027.504	1211
1027.717	1183
1027.93	1146
1028.143	1115
1028.356	1045
1028.569	1005
1028.782	955
1028.995	1
1029.208	-2
1029.421	-3
1029.634	-3
