Data from QEP037381__578__16-12-54-289.txt Node

Date: Mon Mar 14 16:12:54 EDT 2022
User: dcclab
Spectrometer: QEP03738
Trigger mode: 4
Integration Time (sec): 1.000000E0
Scans to average: 1
Electric dark correction enabled: true
Nonlinearity correction enabled: false
Boxcar width: 0
XAxis mode: Wavelengths
Number of Pixels in Spectrum: 1044
>>>>>Begin Spectral Data<<<<<
783.959	13
784.218	-1
784.476	-3
784.734	-3
784.992	190
785.251	200
785.509	194
785.767	200
786.025	206
786.283	211
786.541	202
786.798	207
787.056	216
787.314	204
787.572	206
787.83	210
788.087	220
788.345	214
788.602	220
788.86	228
789.117	233
789.375	225
789.632	234
789.89	217
790.147	238
790.404	242
790.661	252
790.919	253
791.176	259
791.433	269
791.69	264
791.947	271
792.204	274
792.461	298
792.718	301
792.974	316
793.231	329
793.488	336
793.745	351
794.001	374
794.258	387
794.514	423
794.771	434
795.027	446
795.284	488
795.54	509
795.797	550
796.053	600
796.309	652
796.565	722
796.822	808
797.078	918
797.334	1086
797.59	1292
797.846	1594
798.102	2124
798.358	2880
798.614	4104
798.869	6049
799.125	9021
799.381	13228
799.637	18911
799.892	25601
800.148	33037
800.403	40323
800.659	46552
800.914	51385
801.17	54742
801.425	56988
801.68	58405
801.936	59894
802.191	61213
802.446	62688
802.701	63825
802.957	64865
803.212	66231
803.467	67567
803.722	68909
803.977	69994
804.232	71413
804.486	72639
804.741	74308
804.996	75663
805.251	76744
805.505	78077
805.76	79221
806.015	80476
806.269	81345
806.524	82289
806.778	83006
807.033	83600
807.287	84586
807.541	85630
807.796	86644
808.05	87631
808.304	88410
808.558	88828
808.812	89487
809.066	90137
809.32	90552
809.574	91406
809.828	91950
810.082	92478
810.336	93031
810.59	94120
810.844	95005
811.097	96061
811.351	97361
811.605	98986
811.858	100575
812.112	102340
812.365	103666
812.619	105206
812.872	106428
813.126	107765
813.379	109391
813.632	110979
813.885	112216
814.139	113895
814.392	115214
814.645	116954
814.898	119176
815.151	121436
815.404	123526
815.657	125305
815.91	127284
816.163	128630
816.416	129817
816.668	130670
816.921	131382
817.174	131557
817.426	131466
817.679	131334
817.931	131507
818.184	131150
818.436	131077
818.689	131209
818.941	131140
819.194	131647
819.446	132319
819.698	132670
819.95	133175
820.202	133378
820.455	134179
820.707	133992
820.959	134034
821.211	134290
821.462	134291
821.714	133648
821.966	132792
822.218	132420
822.47	131453
822.722	130848
822.973	130321
823.225	129727
823.476	129804
823.728	129537
823.979	129783
824.231	129845
824.482	129531
824.734	129881
824.985	129513
825.236	129270
825.487	128980
825.739	128591
825.99	128207
826.241	127715
826.492	126973
826.743	126212
826.994	125745
827.245	125118
827.496	124655
827.747	124367
827.997	124211
828.248	124514
828.499	124611
828.75	124571
829	124298
829.251	124130
829.501	124120
829.752	123219
830.002	122571
830.253	121978
830.503	121169
830.753	120366
831.004	119443
831.254	118940
831.504	118334
831.754	118257
832.004	118029
832.254	118107
832.504	117951
832.754	118115
833.004	117899
833.254	117368
833.504	117202
833.754	116656
834.003	116388
834.253	115698
834.503	115095
834.752	114494
835.002	113638
835.252	112912
835.501	112337
835.75	112023
836	111878
836.249	111645
836.499	111402
836.748	111055
836.997	111124
837.246	111087
837.495	111356
837.744	111408
837.993	111174
838.242	110896
838.491	110373
838.74	109715
838.989	109187
839.238	108420
839.487	107739
839.736	107310
839.984	106794
840.233	106433
840.482	105858
840.73	105359
840.979	104883
841.227	104672
841.476	103960
841.724	104028
841.972	103735
842.221	103385
842.469	102954
842.717	102389
842.965	102063
843.213	102090
843.461	101363
843.71	100711
843.958	100666
844.205	100256
844.453	99783
844.701	99946
844.949	99751
845.197	99531
845.445	99500
845.692	99790
845.94	99763
846.188	99641
846.435	99328
846.683	98764
846.93	98510
847.178	97970
847.425	97287
847.672	96478
847.92	95810
848.167	94752
848.414	93860
848.661	93304
848.908	92473
849.155	92372
849.402	92144
849.649	91978
849.896	92134
850.143	92401
850.39	92790
850.637	92880
850.884	92707
851.131	92782
851.377	92501
851.624	91965
851.87	91586
852.117	90971
852.364	90610
852.61	89973
852.856	89729
853.103	89324
853.349	89068
853.595	88792
853.842	88161
854.088	88083
854.334	88277
854.58	87985
854.826	87724
855.072	87096
855.318	86369
855.564	85771
855.81	84999
856.056	84199
856.302	83379
856.548	82964
856.793	82569
857.039	82267
857.285	81874
857.53	81934
857.776	82132
858.021	82385
858.267	82456
858.512	82537
858.758	82675
859.003	82532
859.248	82607
859.493	82491
859.739	82176
859.984	82007
860.229	81504
860.474	81159
860.719	80432
860.964	80032
861.209	79682
861.454	79015
861.699	78350
861.943	78045
862.188	77618
862.433	77287
862.678	76996
862.922	77030
863.167	76638
863.411	76518
863.656	76090
863.9	76203
864.145	76055
864.389	75630
864.634	75015
864.878	74912
865.122	74783
865.366	74316
865.61	74124
865.855	73894
866.099	73806
866.343	73849
866.587	73483
866.831	73407
867.074	73067
867.318	73228
867.562	73262
867.806	72978
868.05	72834
868.293	72744
868.537	72479
868.78	72153
869.024	71827
869.267	71186
869.511	70885
869.754	70341
869.998	69378
870.241	68930
870.484	68546
870.728	68207
870.971	67843
871.214	67372
871.457	67183
871.7	67174
871.943	67077
872.186	67226
872.429	67300
872.672	67142
872.915	67101
873.158	66884
873.4	66868
873.643	66740
873.886	66455
874.128	66381
874.371	66024
874.613	65997
874.856	65760
875.098	65516
875.341	65243
875.583	65215
875.825	64993
876.068	64477
876.31	64124
876.552	63585
876.794	63076
877.036	62413
877.278	62015
877.52	61844
877.762	61339
878.004	61335
878.246	61185
878.488	61175
878.73	60914
878.972	60883
879.213	60895
879.455	60769
879.697	60596
879.938	60182
880.18	60120
880.421	59715
880.663	59527
880.904	59423
881.145	59437
881.387	59283
881.628	59361
881.869	59022
882.11	59152
882.352	59053
882.593	58860
882.834	58673
883.075	58503
883.316	58343
883.557	58048
883.797	57774
884.038	57421
884.279	56605
884.52	56227
884.761	55724
885.001	55444
885.242	54949
885.482	54368
885.723	54184
885.963	54013
886.204	53803
886.444	53602
886.685	53549
886.925	53248
887.165	52966
887.405	52836
887.646	52582
887.886	52504
888.126	52274
888.366	52379
888.606	52448
888.846	52513
889.086	52477
889.326	52672
889.565	52459
889.805	52350
890.045	52119
890.285	51980
890.524	51916
890.764	51622
891.003	51289
891.243	50875
891.482	50187
891.722	49941
891.961	49564
892.201	49143
892.44	48915
892.679	48661
892.918	48561
893.158	48346
893.397	48276
893.636	48060
893.875	47940
894.114	47798
894.353	47371
894.592	47465
894.831	47019
895.069	46805
895.308	46443
895.547	46224
895.786	46068
896.024	45922
896.263	45737
896.501	45570
896.74	45548
896.978	45438
897.217	45463
897.455	45414
897.694	45309
897.932	45093
898.17	44913
898.408	44645
898.646	44506
898.885	44230
899.123	44130
899.361	43819
899.599	43558
899.837	43311
900.075	43194
900.312	42675
900.55	42252
900.788	42021
901.026	41608
901.263	41217
901.501	40907
901.739	40759
901.976	40332
902.214	40253
902.451	40183
902.689	39979
902.926	39953
903.163	39920
903.401	39902
903.638	39965
903.875	39896
904.112	39871
904.349	39629
904.586	39676
904.823	39433
905.06	39017
905.297	38792
905.534	38484
905.771	38212
906.008	38140
906.245	37767
906.481	37628
906.718	37441
906.955	37146
907.191	36997
907.428	36749
907.664	36588
907.901	36577
908.137	36394
908.374	36377
908.61	36179
908.846	36015
909.083	35900
909.319	35410
909.555	35436
909.791	35063
910.027	34806
910.263	34396
910.499	34230
910.735	34021
910.971	33634
911.207	33550
911.443	33315
911.678	33074
911.914	32984
912.15	32966
912.385	32949
912.621	32720
912.857	32816
913.092	32778
913.328	32755
913.563	32585
913.798	32445
914.034	32472
914.269	32388
914.504	32309
914.739	32207
914.975	31895
915.21	31694
915.445	31486
915.68	31185
915.915	30938
916.15	30553
916.384	30121
916.619	29875
916.854	29637
917.089	29493
917.324	29407
917.558	29115
917.793	28875
918.028	28851
918.262	28657
918.497	28702
918.731	28557
918.965	28522
919.2	28494
919.434	28303
919.668	28433
919.903	28280
920.137	28132
920.371	27976
920.605	27869
920.839	27677
921.073	27363
921.307	27228
921.541	26982
921.775	26877
922.009	26682
922.243	26672
922.476	26515
922.71	26549
922.944	26456
923.177	26385
923.411	26365
923.644	26259
923.878	26196
924.111	26104
924.345	26031
924.578	25917
924.811	25803
925.045	25508
925.278	25284
925.511	25152
925.744	24837
925.977	24793
926.21	24630
926.443	24382
926.676	23975
926.909	23939
927.142	23760
927.375	23638
927.608	23472
927.841	23326
928.073	23266
928.306	23206
928.539	23032
928.771	23082
929.004	23174
929.236	22977
929.469	22955
929.701	22981
929.933	23040
930.166	23039
930.398	22892
930.63	23011
930.862	22805
931.094	22668
931.327	22511
931.559	22387
931.791	22288
932.023	22099
932.255	21935
932.486	21788
932.718	21581
932.95	21536
933.182	21350
933.413	21271
933.645	21014
933.877	20933
934.108	20876
934.34	20677
934.571	20698
934.803	20630
935.034	20464
935.265	20463
935.497	20354
935.728	20298
935.959	20146
936.19	20073
936.422	19990
936.653	19907
936.884	19778
937.115	19668
937.346	19472
937.577	19408
937.807	19210
938.038	19088
938.269	19166
938.5	19052
938.73	19006
938.961	19049
939.192	18952
939.422	18893
939.653	18866
939.883	18807
940.114	18821
940.344	18690
940.574	18715
940.805	18560
941.035	18340
941.265	18268
941.495	18043
941.726	17891
941.956	17833
942.186	17704
942.416	17445
942.646	17408
942.876	17209
943.105	17093
943.335	17039
943.565	16968
943.795	16790
944.024	16610
944.254	16457
944.484	16415
944.713	16311
944.943	16315
945.172	16239
945.402	16216
945.631	16062
945.86	16003
946.09	16032
946.319	15935
946.548	15923
946.777	15858
947.006	15889
947.235	15851
947.465	15723
947.694	15593
947.922	15509
948.151	15437
948.38	15252
948.609	15092
948.838	15066
949.067	14988
949.295	14891
949.524	14729
949.752	14644
949.981	14577
950.21	14525
950.438	14491
950.666	14342
950.895	14167
951.123	14053
951.351	13946
951.58	13947
951.808	13832
952.036	13789
952.264	13736
952.492	13602
952.72	13502
952.948	13477
953.176	13389
953.404	13274
953.632	13246
953.86	13045
954.088	12898
954.315	12915
954.543	12761
954.771	12674
954.998	12676
955.226	12537
955.453	12485
955.681	12423
955.908	12400
956.135	12428
956.363	12360
956.59	12265
956.817	12247
957.045	12221
957.272	12175
957.499	12096
957.726	12044
957.953	12011
958.18	11922
958.407	11906
958.634	11874
958.861	11751
959.087	11652
959.314	11493
959.541	11541
959.767	11399
959.994	11331
960.221	11286
960.447	11120
960.674	11019
960.9	10957
961.127	10877
961.353	10791
961.579	10691
961.806	10612
962.032	10593
962.258	10559
962.484	10503
962.71	10467
962.936	10377
963.162	10440
963.388	10433
963.614	10438
963.84	10296
964.066	10234
964.292	10183
964.518	10231
964.743	10145
964.969	10150
965.195	10061
965.42	10035
965.646	9898
965.871	9902
966.097	9789
966.322	9814
966.547	9700
966.773	9599
966.998	9606
967.223	9558
967.448	9516
967.674	9466
967.899	9418
968.124	9314
968.349	9312
968.574	9242
968.799	9160
969.024	9105
969.248	9012
969.473	9080
969.698	8959
969.923	8877
970.147	8869
970.372	8825
970.596	8717
970.821	8698
971.046	8572
971.27	8580
971.494	8505
971.719	8523
971.943	8374
972.167	8254
972.392	8292
972.616	8295
972.84	8201
973.064	8164
973.288	8116
973.512	8043
973.736	8052
973.96	7979
974.184	8004
974.408	7917
974.631	7925
974.855	7909
975.079	7879
975.303	7750
975.526	7786
975.75	7732
975.973	7652
976.197	7672
976.42	7659
976.644	7574
976.867	7520
977.09	7446
977.313	7398
977.537	7385
977.76	7309
977.983	7273
978.206	7176
978.429	7128
978.652	7113
978.875	7050
979.098	6996
979.321	6911
979.544	6905
979.767	6878
979.989	6801
980.212	6769
980.435	6721
980.657	6689
980.88	6669
981.102	6590
981.325	6596
981.547	6559
981.77	6525
981.992	6520
982.214	6416
982.437	6412
982.659	6452
982.881	6361
983.103	6339
983.325	6301
983.547	6271
983.769	6289
983.991	6230
984.213	6174
984.435	6119
984.657	6122
984.879	6087
985.1	6097
985.322	6045
985.544	6005
985.765	5941
985.987	5935
986.208	5903
986.43	5859
986.651	5877
986.873	5780
987.094	5809
987.315	5720
987.536	5697
987.758	5609
987.979	5585
988.2	5508
988.421	5506
988.642	5503
988.863	5412
989.084	5395
989.305	5389
989.526	5357
989.747	5282
989.967	5309
990.188	5192
990.409	5160
990.629	5115
990.85	5119
991.071	5098
991.291	5082
991.512	4985
991.732	5005
991.952	4974
992.173	4892
992.393	4882
992.613	4886
992.834	4892
993.054	4849
993.274	4790
993.494	4782
993.714	4750
993.934	4777
994.154	4704
994.374	4719
994.594	4733
994.813	4647
995.033	4596
995.253	4642
995.473	4608
995.692	4544
995.912	4576
996.131	4507
996.351	4464
996.57	4418
996.79	4398
997.009	4355
997.228	4327
997.448	4286
997.667	4192
997.886	4176
998.105	4171
998.325	4120
998.544	4106
998.763	4020
998.982	4070
999.201	3991
999.419	3999
999.638	3930
999.857	3956
1000.076	3947
1000.295	3875
1000.513	3880
1000.732	3885
1000.95	3837
1001.169	3842
1001.388	3790
1001.606	3784
1001.824	3779
1002.043	3770
1002.261	3760
1002.479	3687
1002.698	3679
1002.916	3707
1003.134	3684
1003.352	3637
1003.57	3592
1003.788	3604
1004.006	3623
1004.224	3490
1004.442	3526
1004.66	3521
1004.878	3534
1005.095	3455
1005.313	3465
1005.531	3445
1005.748	3411
1005.966	3429
1006.184	3335
1006.401	3370
1006.618	3335
1006.836	3277
1007.053	3242
1007.271	3263
1007.488	3279
1007.705	3227
1007.922	3216
1008.139	3209
1008.357	3188
1008.574	3178
1008.791	3203
1009.008	3210
1009.225	3154
1009.441	3159
1009.658	3171
1009.875	3121
1010.092	3131
1010.309	3060
1010.525	3055
1010.742	3029
1010.958	2995
1011.175	2993
1011.391	2919
1011.608	2907
1011.824	2916
1012.041	2882
1012.257	2856
1012.473	2794
1012.689	2836
1012.906	2788
1013.122	2749
1013.338	2757
1013.554	2721
1013.77	2748
1013.986	2738
1014.202	2733
1014.418	2746
1014.634	2753
1014.849	2761
1015.065	2791
1015.281	2753
1015.496	2768
1015.712	2732
1015.928	2702
1016.143	2650
1016.359	2607
1016.574	2613
1016.79	2555
1017.005	2523
1017.22	2498
1017.435	2437
1017.651	2429
1017.866	2386
1018.081	2350
1018.296	2321
1018.511	2291
1018.726	2259
1018.941	2239
1019.156	2223
1019.371	2222
1019.586	2176
1019.801	2181
1020.015	2157
1020.23	2164
1020.445	2122
1020.659	2087
1020.874	2101
1021.088	2067
1021.303	2030
1021.517	2016
1021.732	2015
1021.946	1994
1022.16	1970
1022.375	1971
1022.589	1941
1022.803	1905
1023.017	1925
1023.231	1840
1023.445	1820
1023.659	1769
1023.873	1734
1024.087	1713
1024.301	1677
1024.515	1661
1024.729	1621
1024.942	1589
1025.156	1595
1025.37	1543
1025.583	1560
1025.797	1492
1026.01	1475
1026.224	1437
1026.437	1388
1026.651	1353
1026.864	1292
1027.077	1306
1027.291	1254
1027.504	1218
1027.717	1191
1027.93	1156
1028.143	1120
1028.356	1090
1028.569	1005
1028.782	962
1028.995	-2
1029.208	-4
1029.421	-1
1029.634	1
