Data from QEP037381__639__16-14-03-289.txt Node

Date: Mon Mar 14 16:14:03 EDT 2022
User: dcclab
Spectrometer: QEP03738
Trigger mode: 4
Integration Time (sec): 1.000000E0
Scans to average: 1
Electric dark correction enabled: true
Nonlinearity correction enabled: false
Boxcar width: 0
XAxis mode: Wavelengths
Number of Pixels in Spectrum: 1044
>>>>>Begin Spectral Data<<<<<
783.959	14.5
784.218	-0.5
784.476	-0.5
784.734	-3.5
784.992	202.5
785.251	200.5
785.509	200.5
785.767	202.5
786.025	211.5
786.283	207.5
786.541	218.5
786.798	215.5
787.056	209.5
787.314	208.5
787.572	217.5
787.83	212.5
788.087	227.5
788.345	231.5
788.602	226.5
788.86	232.5
789.117	230.5
789.375	233.5
789.632	228.5
789.89	236.5
790.147	249.5
790.404	257.5
790.661	261.5
790.919	271.5
791.176	264.5
791.433	277.5
791.69	267.5
791.947	290.5
792.204	295.5
792.461	297.5
792.718	320.5
792.974	310.5
793.231	325.5
793.488	361.5
793.745	352.5
794.001	388.5
794.258	408.5
794.514	408.5
794.771	453.5
795.027	466.5
795.284	489.5
795.54	537.5
795.797	560.5
796.053	622.5
796.309	680.5
796.565	748.5
796.822	842.5
797.078	959.5
797.334	1119.5
797.59	1337.5
797.846	1677.5
798.102	2164.5
798.358	3014.5
798.614	4274.5
798.869	6323.5
799.125	9369.5
799.381	13707.5
799.637	19491.5
799.892	26597.5
800.148	34254.5
800.403	41681.5
800.659	48378.5
800.914	53301.5
801.17	56748.5
801.425	58903.5
801.68	60577.5
801.936	62179.5
802.191	63567.5
802.446	64714.5
802.701	66003.5
802.957	67268.5
803.212	68688.5
803.467	70084.5
803.722	71338.5
803.977	72736.5
804.232	74035.5
804.486	75419.5
804.741	76839.5
804.996	78157.5
805.251	79427.5
805.505	80677.5
805.76	82026.5
806.015	83181.5
806.269	84237.5
806.524	85324.5
806.778	85866.5
807.033	86633.5
807.287	87575.5
807.541	88713.5
807.796	89778.5
808.05	90699.5
808.304	91600.5
808.558	92109.5
808.812	92767.5
809.066	93243.5
809.32	94027.5
809.574	94505.5
809.828	95267.5
810.082	95750.5
810.336	96335.5
810.59	97405.5
810.844	98360.5
811.097	99515.5
811.351	100921.5
811.605	102415.5
811.858	104192.5
812.112	105993.5
812.365	107222.5
812.619	108848.5
812.872	110268.5
813.126	111444.5
813.379	113089.5
813.632	114390.5
813.885	115797.5
814.139	117678.5
814.392	118813.5
814.645	120803.5
814.898	123214.5
815.151	125206.5
815.404	127332.5
815.657	129597.5
815.91	131156.5
816.163	132985.5
816.416	133988.5
816.668	135000.5
816.921	135640.5
817.174	135923.5
817.426	136095.5
817.679	135646.5
817.931	135730.5
818.184	135459.5
818.436	135390.5
818.689	135278.5
818.941	135613.5
819.194	136183.5
819.446	136638.5
819.698	136897.5
819.95	137315.5
820.202	137680.5
820.455	138445.5
820.707	138456.5
820.959	138458.5
821.211	138599.5
821.462	138479.5
821.714	138084.5
821.966	137315.5
822.218	136505.5
822.47	135639.5
822.722	135316.5
822.973	134537.5
823.225	134202.5
823.476	133812.5
823.728	133950.5
823.979	133899.5
824.231	133793.5
824.482	134057.5
824.734	134137.5
824.985	133799.5
825.236	133659.5
825.487	133143.5
825.739	132720.5
825.99	131948.5
826.241	131751.5
826.492	130942.5
826.743	130221.5
826.994	129572.5
827.245	129054.5
827.496	128599.5
827.747	128260.5
827.997	127997.5
828.248	128454.5
828.499	128437.5
828.75	128355.5
829	128300.5
829.251	127875.5
829.501	127776.5
829.752	127294.5
830.002	126553.5
830.253	125726.5
830.503	124988.5
830.753	124205.5
831.004	123264.5
831.254	122237.5
831.504	122272.5
831.754	122006.5
832.004	121745.5
832.254	121507.5
832.504	121743.5
832.754	121652.5
833.004	121182.5
833.254	120788.5
833.504	120898.5
833.754	120500.5
834.003	119867.5
834.253	119391.5
834.503	118595.5
834.752	117942.5
835.002	117056.5
835.252	116167.5
835.501	115819.5
835.75	115185.5
836	115117.5
836.249	115103.5
836.499	114768.5
836.748	114380.5
836.997	114478.5
837.246	114612.5
837.495	114528.5
837.744	114626.5
837.993	114542.5
838.242	114428.5
838.491	113895.5
838.74	112842.5
838.989	112311.5
839.238	111732.5
839.487	111157.5
839.736	110395.5
839.984	109901.5
840.233	109568.5
840.482	109202.5
840.73	108551.5
840.979	107990.5
841.227	107655.5
841.476	107319.5
841.724	107143.5
841.972	106631.5
842.221	106309.5
842.469	105917.5
842.717	105279.5
842.965	105284.5
843.213	104791.5
843.461	104330.5
843.71	103803.5
843.958	103468.5
844.205	102965.5
844.453	102915.5
844.701	102845.5
844.949	102769.5
845.197	102530.5
845.445	102428.5
845.692	102710.5
845.94	102547.5
846.188	102485.5
846.435	102228.5
846.683	101778.5
846.93	101583.5
847.178	100798.5
847.425	100094.5
847.672	99287.5
847.92	98522.5
848.167	97694.5
848.414	96485.5
848.661	95891.5
848.908	95391.5
849.155	94829.5
849.402	94741.5
849.649	94535.5
849.896	94635.5
850.143	94961.5
850.39	95288.5
850.637	95579.5
850.884	95492.5
851.131	95367.5
851.377	94855.5
851.624	94741.5
851.87	94098.5
852.117	93534.5
852.364	93129.5
852.61	92620.5
852.856	92143.5
853.103	91948.5
853.349	91668.5
853.595	91318.5
853.842	90743.5
854.088	90442.5
854.334	90601.5
854.58	90701.5
854.826	90308.5
855.072	89489.5
855.318	88892.5
855.564	88033.5
855.81	87494.5
856.056	86585.5
856.302	85802.5
856.548	85140.5
856.793	84664.5
857.039	84575.5
857.285	84335.5
857.53	84207.5
857.776	84253.5
858.021	84460.5
858.267	84807.5
858.512	84782.5
858.758	85092.5
859.003	84899.5
859.248	84845.5
859.493	84838.5
859.739	84335.5
859.984	84130.5
860.229	83778.5
860.474	83151.5
860.719	82715.5
860.964	82116.5
861.209	81657.5
861.454	80975.5
861.699	80598.5
861.943	80397.5
862.188	79891.5
862.433	79471.5
862.678	79239.5
862.922	79214.5
863.167	78913.5
863.411	78539.5
863.656	78450.5
863.9	78059.5
864.145	78115.5
864.389	77583.5
864.634	77211.5
864.878	77176.5
865.122	76685.5
865.366	76440.5
865.61	76233.5
865.855	75934.5
866.099	76060.5
866.343	75732.5
866.587	75338.5
866.831	75350.5
867.074	75198.5
867.318	75199.5
867.562	75182.5
867.806	75057.5
868.05	75020.5
868.293	74804.5
868.537	74366.5
868.78	74174.5
869.024	73585.5
869.267	73232.5
869.511	72709.5
869.754	72066.5
869.998	71526.5
870.241	70807.5
870.484	70308.5
870.728	69877.5
870.971	69293.5
871.214	69056.5
871.457	69064.5
871.7	68803.5
871.943	69006.5
872.186	68891.5
872.429	69121.5
872.672	69202.5
872.915	68841.5
873.158	68588.5
873.4	68812.5
873.643	68536.5
873.886	68339.5
874.128	68006.5
874.371	68025.5
874.613	67915.5
874.856	67343.5
875.098	67196.5
875.341	67106.5
875.583	66872.5
875.825	66533.5
876.068	66418.5
876.31	65720.5
876.552	65069.5
876.794	64708.5
877.036	63944.5
877.278	63659.5
877.52	63573.5
877.762	63224.5
878.004	62921.5
878.246	62706.5
878.488	62697.5
878.73	62659.5
878.972	62619.5
879.213	62549.5
879.455	62336.5
879.697	62122.5
879.938	61921.5
880.18	61685.5
880.421	61228.5
880.663	61181.5
880.904	60979.5
881.145	60940.5
881.387	60923.5
881.628	60905.5
881.869	60637.5
882.11	60692.5
882.352	60492.5
882.593	60299.5
882.834	60175.5
883.075	59968.5
883.316	59952.5
883.557	59606.5
883.797	59320.5
884.038	59011.5
884.279	58176.5
884.52	57779.5
884.761	57239.5
885.001	56882.5
885.242	56352.5
885.482	55957.5
885.723	55533.5
885.963	55360.5
886.204	55267.5
886.444	55020.5
886.685	54842.5
886.925	54641.5
887.165	54265.5
887.405	54134.5
887.646	54108.5
887.886	53702.5
888.126	53755.5
888.366	53733.5
888.606	53860.5
888.846	53897.5
889.086	54025.5
889.326	54010.5
889.565	53911.5
889.805	53608.5
890.045	53545.5
890.285	53278.5
890.524	53231.5
890.764	53013.5
891.003	52777.5
891.243	52045.5
891.482	51622.5
891.722	51260.5
891.961	50979.5
892.201	50590.5
892.44	50268.5
892.679	49961.5
892.918	49855.5
893.158	49525.5
893.397	49451.5
893.636	49189.5
893.875	49151.5
894.114	48792.5
894.353	48718.5
894.592	48481.5
894.831	48546.5
895.069	48010.5
895.308	47785.5
895.547	47390.5
895.786	47217.5
896.024	47165.5
896.263	46894.5
896.501	46936.5
896.74	46927.5
896.978	46709.5
897.217	46605.5
897.455	46532.5
897.694	46504.5
897.932	46266.5
898.17	46055.5
898.408	45984.5
898.646	45753.5
898.885	45450.5
899.123	45094.5
899.361	45021.5
899.599	44649.5
899.837	44398.5
900.075	44048.5
900.312	43859.5
900.55	43517.5
900.788	43003.5
901.026	42568.5
901.263	42135.5
901.501	41977.5
901.739	41714.5
901.976	41416.5
902.214	41267.5
902.451	41119.5
902.689	41198.5
902.926	41086.5
903.163	40974.5
903.401	40910.5
903.638	40986.5
903.875	41062.5
904.112	40895.5
904.349	40745.5
904.586	40465.5
904.823	40480.5
905.06	40073.5
905.297	39922.5
905.534	39534.5
905.771	39240.5
906.008	39039.5
906.245	38858.5
906.481	38580.5
906.718	38458.5
906.955	38237.5
907.191	38017.5
907.428	37714.5
907.664	37597.5
907.901	37625.5
908.137	37440.5
908.374	37136.5
908.61	36963.5
908.846	36966.5
909.083	36654.5
909.319	36470.5
909.555	36155.5
909.791	35982.5
910.027	35657.5
910.263	35438.5
910.499	35078.5
910.735	34776.5
910.971	34666.5
911.207	34270.5
911.443	34203.5
911.678	33965.5
911.914	33719.5
912.15	33741.5
912.385	33720.5
912.621	33765.5
912.857	33637.5
913.092	33579.5
913.328	33574.5
913.563	33334.5
913.798	33337.5
914.034	33400.5
914.269	33158.5
914.504	33180.5
914.739	32915.5
914.975	32644.5
915.21	32453.5
915.445	32222.5
915.68	32068.5
915.915	31763.5
916.15	31463.5
916.384	31131.5
916.619	30498.5
916.854	30359.5
917.089	30241.5
917.324	30122.5
917.558	29875.5
917.793	29681.5
918.028	29493.5
918.262	29394.5
918.497	29341.5
918.731	29331.5
918.965	29388.5
919.2	29116.5
919.434	29109.5
919.668	29004.5
919.903	28867.5
920.137	28876.5
920.371	28569.5
920.605	28507.5
920.839	28327.5
921.073	27970.5
921.307	27811.5
921.541	27635.5
921.775	27482.5
922.009	27302.5
922.243	27317.5
922.476	27300.5
922.71	27112.5
922.944	27144.5
923.177	27027.5
923.411	26971.5
923.644	26881.5
923.878	26834.5
924.111	26707.5
924.345	26601.5
924.578	26423.5
924.811	26319.5
925.045	26084.5
925.278	25945.5
925.511	25791.5
925.744	25484.5
925.977	25334.5
926.21	25089.5
926.443	24864.5
926.676	24674.5
926.909	24541.5
927.142	24356.5
927.375	24078.5
927.608	24055.5
927.841	23865.5
928.073	23761.5
928.306	23711.5
928.539	23566.5
928.771	23529.5
929.004	23566.5
929.236	23536.5
929.469	23600.5
929.701	23487.5
929.933	23545.5
930.166	23469.5
930.398	23417.5
930.63	23470.5
930.862	23303.5
931.094	23142.5
931.327	22974.5
931.559	22884.5
931.791	22699.5
932.023	22545.5
932.255	22438.5
932.486	22271.5
932.718	22089.5
932.95	21892.5
933.182	21704.5
933.413	21720.5
933.645	21598.5
933.877	21479.5
934.108	21378.5
934.34	21154.5
934.571	21161.5
934.803	21083.5
935.034	20967.5
935.265	20851.5
935.497	20776.5
935.728	20824.5
935.959	20689.5
936.19	20559.5
936.422	20324.5
936.653	20320.5
936.884	20225.5
937.115	20101.5
937.346	19965.5
937.577	19875.5
937.807	19643.5
938.038	19572.5
938.269	19563.5
938.5	19547.5
938.73	19525.5
938.961	19330.5
939.192	19302.5
939.422	19318.5
939.653	19333.5
939.883	19236.5
940.114	19162.5
940.344	19129.5
940.574	19049.5
940.805	18862.5
941.035	18903.5
941.265	18704.5
941.495	18604.5
941.726	18441.5
941.956	18266.5
942.186	18113.5
942.416	17931.5
942.646	17883.5
942.876	17683.5
943.105	17527.5
943.335	17436.5
943.565	17319.5
943.795	17165.5
944.024	16940.5
944.254	16903.5
944.484	16745.5
944.713	16700.5
944.943	16533.5
945.172	16529.5
945.402	16447.5
945.631	16464.5
945.86	16315.5
946.09	16395.5
946.319	16290.5
946.548	16295.5
946.777	16257.5
947.006	16185.5
947.235	16142.5
947.465	15995.5
947.694	15920.5
947.922	15783.5
948.151	15648.5
948.38	15546.5
948.609	15454.5
948.838	15375.5
949.067	15270.5
949.295	15112.5
949.524	15141.5
949.752	14948.5
949.981	14827.5
950.21	14722.5
950.438	14642.5
950.666	14589.5
950.895	14485.5
951.123	14397.5
951.351	14282.5
951.58	14226.5
951.808	14096.5
952.036	14101.5
952.264	13979.5
952.492	13886.5
952.72	13763.5
952.948	13719.5
953.176	13622.5
953.404	13478.5
953.632	13411.5
953.86	13319.5
954.088	13167.5
954.315	13181.5
954.543	13033.5
954.771	13008.5
954.998	12874.5
955.226	12826.5
955.453	12726.5
955.681	12679.5
955.908	12669.5
956.135	12541.5
956.363	12598.5
956.59	12538.5
956.817	12594.5
957.045	12384.5
957.272	12471.5
957.499	12358.5
957.726	12384.5
957.953	12316.5
958.18	12157.5
958.407	12154.5
958.634	12040.5
958.861	11992.5
959.087	11870.5
959.314	11843.5
959.541	11748.5
959.767	11521.5
959.994	11577.5
960.221	11481.5
960.447	11381.5
960.674	11321.5
960.9	11113.5
961.127	11100.5
961.353	11044.5
961.579	10853.5
961.806	10909.5
962.032	10810.5
962.258	10729.5
962.484	10719.5
962.71	10659.5
962.936	10626.5
963.162	10607.5
963.388	10545.5
963.614	10578.5
963.84	10525.5
964.066	10372.5
964.292	10468.5
964.518	10341.5
964.743	10348.5
964.969	10334.5
965.195	10239.5
965.42	10220.5
965.646	10166.5
965.871	10050.5
966.097	10036.5
966.322	9993.5
966.547	9949.5
966.773	9883.5
966.998	9781.5
967.223	9790.5
967.448	9639.5
967.674	9611.5
967.899	9554.5
968.124	9506.5
968.349	9463.5
968.574	9457.5
968.799	9363.5
969.024	9295.5
969.248	9212.5
969.473	9139.5
969.698	9182.5
969.923	9144.5
970.147	9097.5
970.372	8968.5
970.596	8957.5
970.821	8832.5
971.046	8804.5
971.27	8721.5
971.494	8752.5
971.719	8597.5
971.943	8579.5
972.167	8474.5
972.392	8468.5
972.616	8406.5
972.84	8277.5
973.064	8259.5
973.288	8263.5
973.512	8240.5
973.736	8180.5
973.96	8160.5
974.184	8095.5
974.408	8104.5
974.631	8138.5
974.855	8019.5
975.079	8062.5
975.303	7992.5
975.526	7942.5
975.75	7894.5
975.973	7871.5
976.197	7869.5
976.42	7859.5
976.644	7739.5
976.867	7676.5
977.09	7649.5
977.313	7586.5
977.537	7533.5
977.76	7415.5
977.983	7424.5
978.206	7295.5
978.429	7276.5
978.652	7259.5
978.875	7206.5
979.098	7112.5
979.321	7114.5
979.544	7024.5
979.767	7036.5
979.989	6919.5
980.212	6880.5
980.435	6839.5
980.657	6827.5
980.88	6793.5
981.102	6795.5
981.325	6757.5
981.547	6626.5
981.77	6657.5
981.992	6653.5
982.214	6570.5
982.437	6538.5
982.659	6527.5
982.881	6455.5
983.103	6498.5
983.325	6438.5
983.547	6406.5
983.769	6356.5
983.991	6381.5
984.213	6349.5
984.435	6237.5
984.657	6219.5
984.879	6225.5
985.1	6113.5
985.322	6172.5
985.544	6080.5
985.765	6091.5
985.987	6080.5
986.208	6008.5
986.43	6032.5
986.651	5957.5
986.873	5929.5
987.094	5850.5
987.315	5815.5
987.536	5787.5
987.758	5734.5
987.979	5702.5
988.2	5615.5
988.421	5623.5
988.642	5626.5
988.863	5535.5
989.084	5461.5
989.305	5429.5
989.526	5391.5
989.747	5359.5
989.967	5334.5
990.188	5306.5
990.409	5244.5
990.629	5272.5
990.85	5236.5
991.071	5155.5
991.291	5145.5
991.512	5096.5
991.732	5081.5
991.952	5040.5
992.173	5020.5
992.393	4993.5
992.613	4928.5
992.834	4952.5
993.054	4955.5
993.274	4916.5
993.494	4924.5
993.714	4912.5
993.934	4838.5
994.154	4829.5
994.374	4843.5
994.594	4777.5
994.813	4762.5
995.033	4746.5
995.253	4713.5
995.473	4676.5
995.692	4685.5
995.912	4652.5
996.131	4595.5
996.351	4540.5
996.57	4515.5
996.79	4507.5
997.009	4458.5
997.228	4382.5
997.448	4367.5
997.667	4312.5
997.886	4292.5
998.105	4239.5
998.325	4228.5
998.544	4189.5
998.763	4153.5
998.982	4132.5
999.201	4108.5
999.419	4081.5
999.638	4072.5
999.857	4033.5
1000.076	3993.5
1000.295	3982.5
1000.513	3987.5
1000.732	3944.5
1000.95	3935.5
1001.169	3883.5
1001.388	3871.5
1001.606	3892.5
1001.824	3844.5
1002.043	3819.5
1002.261	3788.5
1002.479	3794.5
1002.698	3746.5
1002.916	3725.5
1003.134	3744.5
1003.352	3700.5
1003.57	3664.5
1003.788	3680.5
1004.006	3666.5
1004.224	3618.5
1004.442	3589.5
1004.66	3596.5
1004.878	3522.5
1005.095	3529.5
1005.313	3560.5
1005.531	3522.5
1005.748	3474.5
1005.966	3478.5
1006.184	3396.5
1006.401	3398.5
1006.618	3425.5
1006.836	3388.5
1007.053	3378.5
1007.271	3324.5
1007.488	3291.5
1007.705	3302.5
1007.922	3285.5
1008.139	3223.5
1008.357	3279.5
1008.574	3245.5
1008.791	3249.5
1009.008	3251.5
1009.225	3208.5
1009.441	3222.5
1009.658	3195.5
1009.875	3180.5
1010.092	3172.5
1010.309	3156.5
1010.525	3095.5
1010.742	3071.5
1010.958	3029.5
1011.175	3003.5
1011.391	3001.5
1011.608	2967.5
1011.824	2917.5
1012.041	2886.5
1012.257	2916.5
1012.473	2854.5
1012.689	2846.5
1012.906	2862.5
1013.122	2822.5
1013.338	2808.5
1013.554	2771.5
1013.77	2820.5
1013.986	2770.5
1014.202	2767.5
1014.418	2795.5
1014.634	2803.5
1014.849	2826.5
1015.065	2829.5
1015.281	2801.5
1015.496	2791.5
1015.712	2743.5
1015.928	2741.5
1016.143	2712.5
1016.359	2652.5
1016.574	2628.5
1016.79	2598.5
1017.005	2588.5
1017.22	2540.5
1017.435	2485.5
1017.651	2452.5
1017.866	2412.5
1018.081	2394.5
1018.296	2393.5
1018.511	2332.5
1018.726	2321.5
1018.941	2272.5
1019.156	2260.5
1019.371	2241.5
1019.586	2242.5
1019.801	2236.5
1020.015	2224.5
1020.23	2189.5
1020.445	2175.5
1020.659	2154.5
1020.874	2140.5
1021.088	2097.5
1021.303	2076.5
1021.517	2076.5
1021.732	2042.5
1021.946	2074.5
1022.16	2046.5
1022.375	2005.5
1022.589	1963.5
1022.803	1962.5
1023.017	1914.5
1023.231	1909.5
1023.445	1864.5
1023.659	1822.5
1023.873	1823.5
1024.087	1743.5
1024.301	1699.5
1024.515	1693.5
1024.729	1677.5
1024.942	1621.5
1025.156	1626.5
1025.37	1575.5
1025.583	1559.5
1025.797	1532.5
1026.01	1483.5
1026.224	1473.5
1026.437	1428.5
1026.651	1381.5
1026.864	1314.5
1027.077	1324.5
1027.291	1260.5
1027.504	1243.5
1027.717	1201.5
1027.93	1182.5
1028.143	1131.5
1028.356	1110.5
1028.569	1048.5
1028.782	987.5
1028.995	-1.5
1029.208	-1.5
1029.421	-3.5
1029.634	-3.5
