Data from QEP037381__589__16-13-05-287.txt Node

Date: Mon Mar 14 16:13:05 EDT 2022
User: dcclab
Spectrometer: QEP03738
Trigger mode: 4
Integration Time (sec): 1.000000E0
Scans to average: 1
Electric dark correction enabled: true
Nonlinearity correction enabled: false
Boxcar width: 0
XAxis mode: Wavelengths
Number of Pixels in Spectrum: 1044
>>>>>Begin Spectral Data<<<<<
783.959	11.38
784.218	3.38
784.476	-1.62
784.734	-4.62
784.992	196.38
785.251	177.38
785.509	184.38
785.767	176.38
786.025	183.38
786.283	197.38
786.541	195.38
786.798	199.38
787.056	191.38
787.314	192.38
787.572	196.38
787.83	198.38
788.087	205.38
788.345	206.38
788.602	202.38
788.86	214.38
789.117	214.38
789.375	208.38
789.632	221.38
789.89	211.38
790.147	227.38
790.404	226.38
790.661	234.38
790.919	231.38
791.176	233.38
791.433	251.38
791.69	258.38
791.947	266.38
792.204	268.38
792.461	271.38
792.718	290.38
792.974	285.38
793.231	297.38
793.488	310.38
793.745	324.38
794.001	343.38
794.258	355.38
794.514	374.38
794.771	404.38
795.027	405.38
795.284	449.38
795.54	480.38
795.797	505.38
796.053	556.38
796.309	600.38
796.565	652.38
796.822	754.38
797.078	837.38
797.334	1013.38
797.59	1195.38
797.846	1511.38
798.102	1937.38
798.358	2666.38
798.614	3850.38
798.869	5595.38
799.125	8296.38
799.381	12131.38
799.637	17415.38
799.892	23693.38
800.148	30565.38
800.403	37183.38
800.659	42981.38
800.914	47460.38
801.17	50490.38
801.425	52625.38
801.68	53817.38
801.936	55382.38
802.191	56326.38
802.446	57411.38
802.701	58719.38
802.957	59915.38
803.212	61005.38
803.467	62166.38
803.722	63401.38
803.977	64658.38
804.232	65798.38
804.486	67178.38
804.741	68332.38
804.996	69596.38
805.251	70799.38
805.505	72039.38
805.76	72953.38
806.015	74187.38
806.269	74966.38
806.524	76024.38
806.778	76694.38
807.033	77243.38
807.287	78072.38
807.541	79106.38
807.796	79931.38
808.05	80944.38
808.304	81577.38
808.558	82106.38
808.812	82499.38
809.066	83339.38
809.32	83657.38
809.574	84307.38
809.828	85031.38
810.082	85268.38
810.336	85977.38
810.59	86794.38
810.844	87951.38
811.097	88708.38
811.351	90012.38
811.605	91429.38
811.858	92978.38
812.112	94293.38
812.365	96049.38
812.619	97280.38
812.872	98599.38
813.126	99924.38
813.379	101187.38
813.632	102507.38
813.885	103815.38
814.139	105061.38
814.392	106533.38
814.645	108328.38
814.898	110267.38
815.151	112082.38
815.404	113901.38
815.657	116072.38
815.91	117683.38
816.163	119005.38
816.416	120148.38
816.668	120959.38
816.921	121511.38
817.174	121964.38
817.426	122005.38
817.679	121923.38
817.931	121477.38
818.184	121369.38
818.436	121113.38
818.689	121479.38
818.941	121456.38
819.194	122304.38
819.446	122494.38
819.698	123088.38
819.95	123510.38
820.202	123884.38
820.455	124057.38
820.707	124520.38
820.959	124468.38
821.211	124567.38
821.462	124394.38
821.714	124072.38
821.966	123193.38
822.218	122525.38
822.47	122050.38
822.722	121323.38
822.973	120834.38
823.225	120819.38
823.476	120531.38
823.728	120432.38
823.979	120369.38
824.231	120213.38
824.482	120578.38
824.734	120419.38
824.985	120219.38
825.236	120220.38
825.487	119817.38
825.739	119306.38
825.99	118864.38
826.241	118731.38
826.492	117876.38
826.743	117149.38
826.994	116617.38
827.245	116084.38
827.496	115624.38
827.747	115708.38
827.997	115632.38
828.248	115759.38
828.499	115631.38
828.75	115761.38
829	115706.38
829.251	115357.38
829.501	115096.38
829.752	114467.38
830.002	113747.38
830.253	113296.38
830.503	112583.38
830.753	111936.38
831.004	111031.38
831.254	110371.38
831.504	110163.38
831.754	109834.38
832.004	109794.38
832.254	109849.38
832.504	109902.38
832.754	109957.38
833.004	109595.38
833.254	109354.38
833.504	109096.38
833.754	108763.38
834.003	108107.38
834.253	107919.38
834.503	107312.38
834.752	106483.38
835.002	105689.38
835.252	105308.38
835.501	104865.38
835.75	104215.38
836	104029.38
836.249	104106.38
836.499	103901.38
836.748	103894.38
836.997	103651.38
837.246	103595.38
837.495	103971.38
837.744	104045.38
837.993	103550.38
838.242	103588.38
838.491	103231.38
838.74	102283.38
838.989	101737.38
839.238	101035.38
839.487	100626.38
839.736	99944.38
839.984	99710.38
840.233	99264.38
840.482	98832.38
840.73	98202.38
840.979	97902.38
841.227	97495.38
841.476	97212.38
841.724	97064.38
841.972	96847.38
842.221	96321.38
842.469	96058.38
842.717	95622.38
842.965	95229.38
843.213	95020.38
843.461	94643.38
843.71	94047.38
843.958	93675.38
844.205	93590.38
844.453	93291.38
844.701	93439.38
844.949	93155.38
845.197	93124.38
845.445	92845.38
845.692	93226.38
845.94	92920.38
846.188	92826.38
846.435	92759.38
846.683	92309.38
846.93	91991.38
847.178	91486.38
847.425	90889.38
847.672	90110.38
847.92	89719.38
848.167	88813.38
848.414	87762.38
848.661	87271.38
848.908	86559.38
849.155	86184.38
849.402	86127.38
849.649	85973.38
849.896	86234.38
850.143	86506.38
850.39	86802.38
850.637	86872.38
850.884	86570.38
851.131	86668.38
851.377	86550.38
851.624	86137.38
851.87	85681.38
852.117	85169.38
852.364	84593.38
852.61	84176.38
852.856	83994.38
853.103	83515.38
853.349	83227.38
853.595	83031.38
853.842	82577.38
854.088	82478.38
854.334	82437.38
854.58	82383.38
854.826	81928.38
855.072	81591.38
855.318	81047.38
855.564	80033.38
855.81	79461.38
856.056	78709.38
856.302	78248.38
856.548	77754.38
856.793	77289.38
857.039	77120.38
857.285	76648.38
857.53	76512.38
857.776	76847.38
858.021	76825.38
858.267	77225.38
858.512	77322.38
858.758	77294.38
859.003	77546.38
859.248	77325.38
859.493	77111.38
859.739	76966.38
859.984	76741.38
860.229	76510.38
860.474	75907.38
860.719	75463.38
860.964	75014.38
861.209	74552.38
861.454	74049.38
861.699	73531.38
861.943	73112.38
862.188	72946.38
862.433	72518.38
862.678	72200.38
862.922	72225.38
863.167	72162.38
863.411	71863.38
863.656	71600.38
863.9	71315.38
864.145	71228.38
864.389	70831.38
864.634	70485.38
864.878	70274.38
865.122	69851.38
865.366	69674.38
865.61	69524.38
865.855	69270.38
866.099	69223.38
866.343	69014.38
866.587	68703.38
866.831	68799.38
867.074	68470.38
867.318	68489.38
867.562	68591.38
867.806	68653.38
868.05	68341.38
868.293	68144.38
868.537	68122.38
868.78	67942.38
869.024	67281.38
869.267	66917.38
869.511	66497.38
869.754	65944.38
869.998	65370.38
870.241	64589.38
870.484	64482.38
870.728	63748.38
870.971	63572.38
871.214	63251.38
871.457	63094.38
871.7	62995.38
871.943	63173.38
872.186	63010.38
872.429	63142.38
872.672	63123.38
872.915	62852.38
873.158	62836.38
873.4	62921.38
873.643	62633.38
873.886	62318.38
874.128	62304.38
874.371	62072.38
874.613	61945.38
874.856	61633.38
875.098	61441.38
875.341	61341.38
875.583	61180.38
875.825	60891.38
876.068	60438.38
876.31	60167.38
876.552	59529.38
876.794	59111.38
877.036	58749.38
877.278	58309.38
877.52	58194.38
877.762	57839.38
878.004	57412.38
878.246	57440.38
878.488	57466.38
878.73	57154.38
878.972	57279.38
879.213	57149.38
879.455	57120.38
879.697	56857.38
879.938	56627.38
880.18	56390.38
880.421	56089.38
880.663	55951.38
880.904	55709.38
881.145	55658.38
881.387	55749.38
881.628	55679.38
881.869	55526.38
882.11	55535.38
882.352	55200.38
882.593	55191.38
882.834	55138.38
883.075	55020.38
883.316	54713.38
883.557	54600.38
883.797	54414.38
884.038	54016.38
884.279	53375.38
884.52	52943.38
884.761	52422.38
885.001	51844.38
885.242	51594.38
885.482	51174.38
885.723	51018.38
885.963	50641.38
886.204	50744.38
886.444	50435.38
886.685	50348.38
886.925	49981.38
887.165	49820.38
887.405	49470.38
887.646	49538.38
887.886	49293.38
888.126	49275.38
888.366	49108.38
888.606	49199.38
888.846	49364.38
889.086	49592.38
889.326	49454.38
889.565	49315.38
889.805	49453.38
890.045	49055.38
890.285	48976.38
890.524	48759.38
890.764	48739.38
891.003	48203.38
891.243	47463.38
891.482	47253.38
891.722	46825.38
891.961	46669.38
892.201	46509.38
892.44	46101.38
892.679	45805.38
892.918	45494.38
893.158	45569.38
893.397	45341.38
893.636	45259.38
893.875	45118.38
894.114	44665.38
894.353	44749.38
894.592	44383.38
894.831	44172.38
895.069	44010.38
895.308	43689.38
895.547	43504.38
895.786	43365.38
896.024	43146.38
896.263	42886.38
896.501	42950.38
896.74	42979.38
896.978	42833.38
897.217	42768.38
897.455	42733.38
897.694	42495.38
897.932	42440.38
898.17	42227.38
898.408	42191.38
898.646	41917.38
898.885	41568.38
899.123	41341.38
899.361	41266.38
899.599	40950.38
899.837	40738.38
900.075	40510.38
900.312	40194.38
900.55	39849.38
900.788	39491.38
901.026	39048.38
901.263	38709.38
901.501	38437.38
901.739	38263.38
901.976	38122.38
902.214	37947.38
902.451	37800.38
902.689	37726.38
902.926	37743.38
903.163	37535.38
903.401	37612.38
903.638	37507.38
903.875	37636.38
904.112	37544.38
904.349	37356.38
904.586	37264.38
904.823	36968.38
905.06	36895.38
905.297	36526.38
905.534	36395.38
905.771	36107.38
906.008	35791.38
906.245	35373.38
906.481	35335.38
906.718	35199.38
906.955	35097.38
907.191	34861.38
907.428	34603.38
907.664	34670.38
907.901	34570.38
908.137	34234.38
908.374	34106.38
908.61	34063.38
908.846	33916.38
909.083	33640.38
909.319	33509.38
909.555	33294.38
909.791	33016.38
910.027	32533.38
910.263	32473.38
910.499	32186.38
910.735	31927.38
910.971	31711.38
911.207	31552.38
911.443	31418.38
911.678	31075.38
911.914	31174.38
912.15	30981.38
912.385	30849.38
912.621	30845.38
912.857	30807.38
913.092	30794.38
913.328	30799.38
913.563	30593.38
913.798	30710.38
914.034	30531.38
914.269	30478.38
914.504	30412.38
914.739	30218.38
914.975	30001.38
915.21	29886.38
915.445	29666.38
915.68	29337.38
915.915	29078.38
916.15	28815.38
916.384	28565.38
916.619	28213.38
916.854	28025.38
917.089	27737.38
917.324	27621.38
917.558	27466.38
917.793	27211.38
918.028	27145.38
918.262	26970.38
918.497	26997.38
918.731	27102.38
918.965	26900.38
919.2	26811.38
919.434	26822.38
919.668	26616.38
919.903	26625.38
920.137	26540.38
920.371	26334.38
920.605	26263.38
920.839	25994.38
921.073	25858.38
921.307	25601.38
921.541	25449.38
921.775	25250.38
922.009	25186.38
922.243	25198.38
922.476	25091.38
922.71	25052.38
922.944	25042.38
923.177	24909.38
923.411	24820.38
923.644	24686.38
923.878	24680.38
924.111	24535.38
924.345	24518.38
924.578	24415.38
924.811	24187.38
925.045	24020.38
925.278	23940.38
925.511	23792.38
925.744	23447.38
925.977	23309.38
926.21	23234.38
926.443	23028.38
926.676	22729.38
926.909	22436.38
927.142	22432.38
927.375	22331.38
927.608	22088.38
927.841	21966.38
928.073	21911.38
928.306	21865.38
928.539	21817.38
928.771	21705.38
929.004	21746.38
929.236	21789.38
929.469	21728.38
929.701	21700.38
929.933	21731.38
930.166	21649.38
930.398	21679.38
930.63	21629.38
930.862	21578.38
931.094	21445.38
931.327	21235.38
931.559	21187.38
931.791	20945.38
932.023	20831.38
932.255	20767.38
932.486	20410.38
932.718	20313.38
932.95	20183.38
933.182	20028.38
933.413	20007.38
933.645	19945.38
933.877	19800.38
934.108	19692.38
934.34	19674.38
934.571	19492.38
934.803	19473.38
935.034	19403.38
935.265	19251.38
935.497	19196.38
935.728	19126.38
935.959	19065.38
936.19	18925.38
936.422	18905.38
936.653	18790.38
936.884	18637.38
937.115	18525.38
937.346	18428.38
937.577	18306.38
937.807	18226.38
938.038	18081.38
938.269	18144.38
938.5	18019.38
938.73	17989.38
938.961	17865.38
939.192	17929.38
939.422	17807.38
939.653	17770.38
939.883	17711.38
940.114	17793.38
940.344	17594.38
940.574	17624.38
940.805	17514.38
941.035	17334.38
941.265	17322.38
941.495	17058.38
941.726	16958.38
941.956	16891.38
942.186	16715.38
942.416	16583.38
942.646	16460.38
942.876	16298.38
943.105	16167.38
943.335	16094.38
943.565	15946.38
943.795	15859.38
944.024	15778.38
944.254	15598.38
944.484	15556.38
944.713	15476.38
944.943	15446.38
945.172	15288.38
945.402	15263.38
945.631	15208.38
945.86	15176.38
946.09	15159.38
946.319	15159.38
946.548	15096.38
946.777	14986.38
947.006	14982.38
947.235	14928.38
947.465	14871.38
947.694	14741.38
947.922	14610.38
948.151	14519.38
948.38	14478.38
948.609	14251.38
948.838	14192.38
949.067	14086.38
949.295	14020.38
949.524	13899.38
949.752	13858.38
949.981	13719.38
950.21	13664.38
950.438	13618.38
950.666	13519.38
950.895	13405.38
951.123	13401.38
951.351	13212.38
951.58	13158.38
951.808	13090.38
952.036	13056.38
952.264	12944.38
952.492	12866.38
952.72	12828.38
952.948	12770.38
953.176	12662.38
953.404	12450.38
953.632	12438.38
953.86	12359.38
954.088	12296.38
954.315	12163.38
954.543	12090.38
954.771	11975.38
954.998	11991.38
955.226	11926.38
955.453	11840.38
955.681	11825.38
955.908	11749.38
956.135	11775.38
956.363	11731.38
956.59	11599.38
956.817	11611.38
957.045	11575.38
957.272	11599.38
957.499	11543.38
957.726	11412.38
957.953	11366.38
958.18	11413.38
958.407	11302.38
958.634	11204.38
958.861	11089.38
959.087	11081.38
959.314	11024.38
959.541	10933.38
959.767	10857.38
959.994	10640.38
960.221	10627.38
960.447	10558.38
960.674	10443.38
960.9	10388.38
961.127	10342.38
961.353	10233.38
961.579	10162.38
961.806	10142.38
962.032	10061.38
962.258	10040.38
962.484	10017.38
962.71	9879.38
962.936	9931.38
963.162	9876.38
963.388	9832.38
963.614	9769.38
963.84	9749.38
964.066	9725.38
964.292	9683.38
964.518	9649.38
964.743	9619.38
964.969	9650.38
965.195	9489.38
965.42	9423.38
965.646	9409.38
965.871	9383.38
966.097	9329.38
966.322	9336.38
966.547	9296.38
966.773	9185.38
966.998	9149.38
967.223	9090.38
967.448	8981.38
967.674	8973.38
967.899	8877.38
968.124	8817.38
968.349	8781.38
968.574	8772.38
968.799	8688.38
969.024	8611.38
969.248	8605.38
969.473	8559.38
969.698	8562.38
969.923	8428.38
970.147	8421.38
970.372	8302.38
970.596	8297.38
970.821	8260.38
971.046	8126.38
971.27	8120.38
971.494	8104.38
971.719	8027.38
971.943	8009.38
972.167	7906.38
972.392	7842.38
972.616	7811.38
972.84	7794.38
973.064	7774.38
973.288	7722.38
973.512	7701.38
973.736	7652.38
973.96	7595.38
974.184	7582.38
974.408	7585.38
974.631	7548.38
974.855	7598.38
975.079	7454.38
975.303	7413.38
975.526	7374.38
975.75	7344.38
975.973	7317.38
976.197	7314.38
976.42	7220.38
976.644	7186.38
976.867	7153.38
977.09	7119.38
977.313	7064.38
977.537	7011.38
977.76	6959.38
977.983	6890.38
978.206	6866.38
978.429	6816.38
978.652	6753.38
978.875	6718.38
979.098	6717.38
979.321	6600.38
979.544	6592.38
979.767	6547.38
979.989	6501.38
980.212	6426.38
980.435	6423.38
980.657	6353.38
980.88	6388.38
981.102	6334.38
981.325	6295.38
981.547	6247.38
981.77	6212.38
981.992	6172.38
982.214	6190.38
982.437	6135.38
982.659	6110.38
982.881	6107.38
983.103	6087.38
983.325	6026.38
983.547	5998.38
983.769	5951.38
983.991	5939.38
984.213	5876.38
984.435	5902.38
984.657	5791.38
984.879	5819.38
985.1	5758.38
985.322	5716.38
985.544	5742.38
985.765	5684.38
985.987	5629.38
986.208	5566.38
986.43	5548.38
986.651	5593.38
986.873	5517.38
987.094	5484.38
987.315	5447.38
987.536	5369.38
987.758	5344.38
987.979	5309.38
988.2	5232.38
988.421	5293.38
988.642	5245.38
988.863	5161.38
989.084	5140.38
989.305	5117.38
989.526	5062.38
989.747	5002.38
989.967	4974.38
990.188	5005.38
990.409	4896.38
990.629	4884.38
990.85	4869.38
991.071	4836.38
991.291	4846.38
991.512	4776.38
991.732	4728.38
991.952	4710.38
992.173	4683.38
992.393	4698.38
992.613	4656.38
992.834	4644.38
993.054	4642.38
993.274	4617.38
993.494	4573.38
993.714	4565.38
993.934	4558.38
994.154	4526.38
994.374	4537.38
994.594	4508.38
994.813	4471.38
995.033	4414.38
995.253	4417.38
995.473	4413.38
995.692	4344.38
995.912	4308.38
996.131	4330.38
996.351	4306.38
996.57	4211.38
996.79	4193.38
997.009	4188.38
997.228	4140.38
997.448	4054.38
997.667	4019.38
997.886	3970.38
998.105	3971.38
998.325	3978.38
998.544	3929.38
998.763	3855.38
998.982	3863.38
999.201	3839.38
999.419	3825.38
999.638	3807.38
999.857	3768.38
1000.076	3712.38
1000.295	3726.38
1000.513	3742.38
1000.732	3708.38
1000.95	3658.38
1001.169	3646.38
1001.388	3634.38
1001.606	3584.38
1001.824	3610.38
1002.043	3575.38
1002.261	3552.38
1002.479	3543.38
1002.698	3519.38
1002.916	3521.38
1003.134	3488.38
1003.352	3455.38
1003.57	3405.38
1003.788	3425.38
1004.006	3447.38
1004.224	3345.38
1004.442	3377.38
1004.66	3374.38
1004.878	3325.38
1005.095	3309.38
1005.313	3332.38
1005.531	3290.38
1005.748	3234.38
1005.966	3283.38
1006.184	3207.38
1006.401	3201.38
1006.618	3180.38
1006.836	3196.38
1007.053	3112.38
1007.271	3139.38
1007.488	3084.38
1007.705	3123.38
1007.922	3066.38
1008.139	3036.38
1008.357	3080.38
1008.574	3046.38
1008.791	3036.38
1009.008	3040.38
1009.225	3043.38
1009.441	3008.38
1009.658	2983.38
1009.875	2973.38
1010.092	3001.38
1010.309	2932.38
1010.525	2903.38
1010.742	2895.38
1010.958	2815.38
1011.175	2850.38
1011.391	2822.38
1011.608	2789.38
1011.824	2736.38
1012.041	2742.38
1012.257	2712.38
1012.473	2687.38
1012.689	2691.38
1012.906	2651.38
1013.122	2643.38
1013.338	2625.38
1013.554	2618.38
1013.77	2629.38
1013.986	2603.38
1014.202	2629.38
1014.418	2615.38
1014.634	2658.38
1014.849	2653.38
1015.065	2668.38
1015.281	2652.38
1015.496	2604.38
1015.712	2644.38
1015.928	2610.38
1016.143	2561.38
1016.359	2509.38
1016.574	2493.38
1016.79	2466.38
1017.005	2418.38
1017.22	2389.38
1017.435	2315.38
1017.651	2321.38
1017.866	2291.38
1018.081	2272.38
1018.296	2215.38
1018.511	2206.38
1018.726	2196.38
1018.941	2168.38
1019.156	2164.38
1019.371	2116.38
1019.586	2099.38
1019.801	2041.38
1020.015	2095.38
1020.23	2040.38
1020.445	2068.38
1020.659	2043.38
1020.874	2009.38
1021.088	2007.38
1021.303	1972.38
1021.517	1934.38
1021.732	1936.38
1021.946	1914.38
1022.16	1902.38
1022.375	1892.38
1022.589	1845.38
1022.803	1821.38
1023.017	1810.38
1023.231	1737.38
1023.445	1756.38
1023.659	1687.38
1023.873	1662.38
1024.087	1643.38
1024.301	1613.38
1024.515	1575.38
1024.729	1555.38
1024.942	1532.38
1025.156	1532.38
1025.37	1503.38
1025.583	1441.38
1025.797	1414.38
1026.01	1425.38
1026.224	1379.38
1026.437	1330.38
1026.651	1305.38
1026.864	1252.38
1027.077	1236.38
1027.291	1219.38
1027.504	1184.38
1027.717	1144.38
1027.93	1139.38
1028.143	1081.38
1028.356	1052.38
1028.569	973.38
1028.782	933.38
1028.995	-0.62
1029.208	-3.62
1029.421	-2.62
1029.634	-1.62
