Data from QEP037381__598__16-13-14-288.txt Node

Date: Mon Mar 14 16:13:14 EDT 2022
User: dcclab
Spectrometer: QEP03738
Trigger mode: 4
Integration Time (sec): 1.000000E0
Scans to average: 1
Electric dark correction enabled: true
Nonlinearity correction enabled: false
Boxcar width: 0
XAxis mode: Wavelengths
Number of Pixels in Spectrum: 1044
>>>>>Begin Spectral Data<<<<<
783.959	10.25
784.218	-0.75
784.476	-1.75
784.734	-3.75
784.992	179.25
785.251	189.25
785.509	181.25
785.767	176.25
786.025	185.25
786.283	197.25
786.541	184.25
786.798	197.25
787.056	188.25
787.314	190.25
787.572	198.25
787.83	195.25
788.087	212.25
788.345	195.25
788.602	207.25
788.86	205.25
789.117	209.25
789.375	202.25
789.632	210.25
789.89	210.25
790.147	224.25
790.404	222.25
790.661	231.25
790.919	231.25
791.176	248.25
791.433	243.25
791.69	256.25
791.947	262.25
792.204	252.25
792.461	258.25
792.718	263.25
792.974	290.25
793.231	305.25
793.488	313.25
793.745	315.25
794.001	339.25
794.258	357.25
794.514	370.25
794.771	397.25
795.027	406.25
795.284	440.25
795.54	456.25
795.797	500.25
796.053	553.25
796.309	599.25
796.565	631.25
796.822	711.25
797.078	815.25
797.334	970.25
797.59	1173.25
797.846	1445.25
798.102	1933.25
798.358	2590.25
798.614	3763.25
798.869	5482.25
799.125	8133.25
799.381	11981.25
799.637	16882.25
799.892	23038.25
800.148	29684.25
800.403	36353.25
800.659	41811.25
800.914	46108.25
801.17	49001.25
801.425	51162.25
801.68	52525.25
801.936	53668.25
802.191	54790.25
802.446	56028.25
802.701	57258.25
802.957	58404.25
803.212	59407.25
803.467	60546.25
803.722	61703.25
803.977	62900.25
804.232	64166.25
804.486	65625.25
804.741	66464.25
804.996	67740.25
805.251	68975.25
805.505	70171.25
805.76	71086.25
806.015	72189.25
806.269	73035.25
806.524	74014.25
806.778	74656.25
807.033	75263.25
807.287	75878.25
807.541	76874.25
807.796	77788.25
808.05	78776.25
808.304	79361.25
808.558	79912.25
808.812	80453.25
809.066	81006.25
809.32	81769.25
809.574	82251.25
809.828	82679.25
810.082	83235.25
810.336	83686.25
810.59	84831.25
810.844	85465.25
811.097	86640.25
811.351	87620.25
811.605	89236.25
811.858	90756.25
812.112	92141.25
812.365	93545.25
812.619	94939.25
812.872	96166.25
813.126	97302.25
813.379	98541.25
813.632	99834.25
813.885	101235.25
814.139	102472.25
814.392	103953.25
814.645	105560.25
814.898	107539.25
815.151	109423.25
815.404	111056.25
815.657	113213.25
815.91	114658.25
816.163	115857.25
816.416	117122.25
816.668	118073.25
816.921	118523.25
817.174	118924.25
817.426	118914.25
817.679	118598.25
817.931	118637.25
818.184	118563.25
818.436	118553.25
818.689	118514.25
818.941	118757.25
819.194	119469.25
819.446	119506.25
819.698	119871.25
819.95	120446.25
820.202	120858.25
820.455	121187.25
820.707	121513.25
820.959	121382.25
821.211	121532.25
821.462	121280.25
821.714	120935.25
821.966	120386.25
822.218	119609.25
822.47	119029.25
822.722	118747.25
822.973	118301.25
823.225	117807.25
823.476	117737.25
823.728	117507.25
823.979	117585.25
824.231	117793.25
824.482	117645.25
824.734	117393.25
824.985	117690.25
825.236	117391.25
825.487	116678.25
825.739	116643.25
825.99	116265.25
826.241	115831.25
826.492	115131.25
826.743	114497.25
826.994	113971.25
827.245	113697.25
827.496	113199.25
827.747	112823.25
827.997	112862.25
828.248	113176.25
828.499	112903.25
828.75	113015.25
829	112986.25
829.251	112880.25
829.501	112651.25
829.752	112098.25
830.002	111517.25
830.253	110650.25
830.503	110109.25
830.753	109656.25
831.004	108669.25
831.254	108087.25
831.504	108060.25
831.754	107579.25
832.004	107543.25
832.254	107337.25
832.504	107366.25
832.754	107375.25
833.004	107200.25
833.254	106982.25
833.504	106640.25
833.754	106438.25
834.003	105876.25
834.253	105426.25
834.503	104822.25
834.752	104250.25
835.002	103349.25
835.252	102826.25
835.501	102333.25
835.75	102110.25
836	101910.25
836.249	101614.25
836.499	101391.25
836.748	101266.25
836.997	101202.25
837.246	101094.25
837.495	101449.25
837.744	101650.25
837.993	101574.25
838.242	101496.25
838.491	100979.25
838.74	100173.25
838.989	99309.25
839.238	98903.25
839.487	98398.25
839.736	97997.25
839.984	97686.25
840.233	96974.25
840.482	96401.25
840.73	96141.25
840.979	95888.25
841.227	95580.25
841.476	95065.25
841.724	95188.25
841.972	94762.25
842.221	94327.25
842.469	93930.25
842.717	93403.25
842.965	93287.25
843.213	93060.25
843.461	92599.25
843.71	92048.25
843.958	91891.25
844.205	91533.25
844.453	91407.25
844.701	91375.25
844.949	91065.25
845.197	90954.25
845.445	90979.25
845.692	91214.25
845.94	91172.25
846.188	90921.25
846.435	90741.25
846.683	90519.25
846.93	90185.25
847.178	89787.25
847.425	88849.25
847.672	88370.25
847.92	87611.25
848.167	86657.25
848.414	85985.25
848.661	85278.25
848.908	84547.25
849.155	84578.25
849.402	84265.25
849.649	84180.25
849.896	84389.25
850.143	84700.25
850.39	85034.25
850.637	85018.25
850.884	84958.25
851.131	84829.25
851.377	84825.25
851.624	84404.25
851.87	83894.25
852.117	83360.25
852.364	83000.25
852.61	82680.25
852.856	82361.25
853.103	81876.25
853.349	81519.25
853.595	81405.25
853.842	80858.25
854.088	80709.25
854.334	80768.25
854.58	80989.25
854.826	80394.25
855.072	79802.25
855.318	79387.25
855.564	78491.25
855.81	77841.25
856.056	77269.25
856.302	76525.25
856.548	76147.25
856.793	75638.25
857.039	75185.25
857.285	75187.25
857.53	75250.25
857.776	75275.25
858.021	75697.25
858.267	75846.25
858.512	75836.25
858.758	75847.25
859.003	75872.25
859.248	75791.25
859.493	75838.25
859.739	75355.25
859.984	75321.25
860.229	74905.25
860.474	74357.25
860.719	74156.25
860.964	73513.25
861.209	73076.25
861.454	72548.25
861.699	71945.25
861.943	71670.25
862.188	71421.25
862.433	71352.25
862.678	70732.25
862.922	70909.25
863.167	70553.25
863.411	70445.25
863.656	70103.25
863.9	69965.25
864.145	69826.25
864.389	69432.25
864.634	69146.25
864.878	68997.25
865.122	68551.25
865.366	68378.25
865.61	68274.25
865.855	68068.25
866.099	67906.25
866.343	67591.25
866.587	67328.25
866.831	67339.25
867.074	67362.25
867.318	67358.25
867.562	67090.25
867.806	67204.25
868.05	67122.25
868.293	66904.25
868.537	66810.25
868.78	66450.25
869.024	65924.25
869.267	65512.25
869.511	65101.25
869.754	64814.25
869.998	64057.25
870.241	63504.25
870.484	63152.25
870.728	62665.25
870.971	62511.25
871.214	61876.25
871.457	61692.25
871.7	61860.25
871.943	61740.25
872.186	62055.25
872.429	61841.25
872.672	62066.25
872.915	61752.25
873.158	61591.25
873.4	61656.25
873.643	61579.25
873.886	61153.25
874.128	61024.25
874.371	60819.25
874.613	60698.25
874.856	60460.25
875.098	60099.25
875.341	60155.25
875.583	60161.25
875.825	59630.25
876.068	59460.25
876.31	58938.25
876.552	58347.25
876.794	58023.25
877.036	57614.25
877.278	57200.25
877.52	56957.25
877.762	56617.25
878.004	56647.25
878.246	56410.25
878.488	56575.25
878.73	56326.25
878.972	56184.25
879.213	56001.25
879.455	55987.25
879.697	55858.25
879.938	55732.25
880.18	55434.25
880.421	55103.25
880.663	55023.25
880.904	54662.25
881.145	54794.25
881.387	54667.25
881.628	54580.25
881.869	54379.25
882.11	54434.25
882.352	54386.25
882.593	54183.25
882.834	54068.25
883.075	53911.25
883.316	53808.25
883.557	53667.25
883.797	53435.25
884.038	52822.25
884.279	52537.25
884.52	51980.25
884.761	51440.25
885.001	51086.25
885.242	50609.25
885.482	50393.25
885.723	50086.25
885.963	49775.25
886.204	49660.25
886.444	49501.25
886.685	49323.25
886.925	49084.25
887.165	48858.25
887.405	48493.25
887.646	48544.25
887.886	48443.25
888.126	48395.25
888.366	48216.25
888.606	48226.25
888.846	48485.25
889.086	48526.25
889.326	48546.25
889.565	48503.25
889.805	48286.25
890.045	48140.25
890.285	47868.25
890.524	47808.25
890.764	47682.25
891.003	47475.25
891.243	46858.25
891.482	46482.25
891.722	46086.25
891.961	45658.25
892.201	45483.25
892.44	45330.25
892.679	44901.25
892.918	44928.25
893.158	44630.25
893.397	44523.25
893.636	44200.25
893.875	44137.25
894.114	44017.25
894.353	43799.25
894.592	43692.25
894.831	43338.25
895.069	43248.25
895.308	43117.25
895.547	42601.25
895.786	42468.25
896.024	42379.25
896.263	42184.25
896.501	42183.25
896.74	42138.25
896.978	42169.25
897.217	41959.25
897.455	41962.25
897.694	41826.25
897.932	41661.25
898.17	41483.25
898.408	41247.25
898.646	41194.25
898.885	40849.25
899.123	40673.25
899.361	40589.25
899.599	40172.25
899.837	39943.25
900.075	39810.25
900.312	39389.25
900.55	39089.25
900.788	38729.25
901.026	38324.25
901.263	37910.25
901.501	37871.25
901.739	37421.25
901.976	37358.25
902.214	37238.25
902.451	37068.25
902.689	37037.25
902.926	36921.25
903.163	36896.25
903.401	36794.25
903.638	36833.25
903.875	36835.25
904.112	36831.25
904.349	36639.25
904.586	36530.25
904.823	36412.25
905.06	36165.25
905.297	35814.25
905.534	35589.25
905.771	35362.25
906.008	35125.25
906.245	35088.25
906.481	34715.25
906.718	34512.25
906.955	34382.25
907.191	34271.25
907.428	34042.25
907.664	33870.25
907.901	33663.25
908.137	33594.25
908.374	33710.25
908.61	33421.25
908.846	33269.25
909.083	33130.25
909.319	32945.25
909.555	32740.25
909.791	32456.25
910.027	32101.25
910.263	31809.25
910.499	31728.25
910.735	31305.25
910.971	31186.25
911.207	31021.25
911.443	30805.25
911.678	30620.25
911.914	30506.25
912.15	30500.25
912.385	30454.25
912.621	30330.25
912.857	30325.25
913.092	30355.25
913.328	30295.25
913.563	30219.25
913.798	30140.25
914.034	30063.25
914.269	29843.25
914.504	29866.25
914.739	29563.25
914.975	29503.25
915.21	29376.25
915.445	29070.25
915.68	28856.25
915.915	28602.25
916.15	28290.25
916.384	27985.25
916.619	27672.25
916.854	27408.25
917.089	27322.25
917.324	27205.25
917.558	27038.25
917.793	26737.25
918.028	26653.25
918.262	26538.25
918.497	26527.25
918.731	26519.25
918.965	26478.25
919.2	26391.25
919.434	26303.25
919.668	26252.25
919.903	26186.25
920.137	25998.25
920.371	25839.25
920.605	25768.25
920.839	25597.25
921.073	25285.25
921.307	25209.25
921.541	25055.25
921.775	24815.25
922.009	24795.25
922.243	24729.25
922.476	24671.25
922.71	24586.25
922.944	24491.25
923.177	24495.25
923.411	24469.25
923.644	24342.25
923.878	24165.25
924.111	24122.25
924.345	24073.25
924.578	23857.25
924.811	23761.25
925.045	23741.25
925.278	23415.25
925.511	23305.25
925.744	23089.25
925.977	22975.25
926.21	22799.25
926.443	22589.25
926.676	22353.25
926.909	22190.25
927.142	22112.25
927.375	21855.25
927.608	21622.25
927.841	21597.25
928.073	21463.25
928.306	21493.25
928.539	21347.25
928.771	21375.25
929.004	21358.25
929.236	21251.25
929.469	21359.25
929.701	21413.25
929.933	21374.25
930.166	21445.25
930.398	21280.25
930.63	21220.25
930.862	21129.25
931.094	21009.25
931.327	20906.25
931.559	20793.25
931.791	20557.25
932.023	20464.25
932.255	20376.25
932.486	20152.25
932.718	20030.25
932.95	19836.25
933.182	19836.25
933.413	19624.25
933.645	19515.25
933.877	19512.25
934.108	19383.25
934.34	19299.25
934.571	19171.25
934.803	19137.25
935.034	18977.25
935.265	18943.25
935.497	18909.25
935.728	18816.25
935.959	18741.25
936.19	18682.25
936.422	18517.25
936.653	18471.25
936.884	18379.25
937.115	18335.25
937.346	18113.25
937.577	18111.25
937.807	17909.25
938.038	17823.25
938.269	17742.25
938.5	17727.25
938.73	17643.25
938.961	17562.25
939.192	17655.25
939.422	17604.25
939.653	17526.25
939.883	17503.25
940.114	17379.25
940.344	17366.25
940.574	17328.25
940.805	17089.25
941.035	17081.25
941.265	16985.25
941.495	16882.25
941.726	16696.25
941.956	16590.25
942.186	16391.25
942.416	16374.25
942.646	16130.25
942.876	16119.25
943.105	15946.25
943.335	15821.25
943.565	15767.25
943.795	15600.25
944.024	15513.25
944.254	15369.25
944.484	15330.25
944.713	15194.25
944.943	15079.25
945.172	15080.25
945.402	14963.25
945.631	15059.25
945.86	14981.25
946.09	14956.25
946.319	14872.25
946.548	14857.25
946.777	14817.25
947.006	14712.25
947.235	14635.25
947.465	14604.25
947.694	14516.25
947.922	14408.25
948.151	14305.25
948.38	14188.25
948.609	14047.25
948.838	14036.25
949.067	13933.25
949.295	13825.25
949.524	13702.25
949.752	13659.25
949.981	13526.25
950.21	13546.25
950.438	13429.25
950.666	13301.25
950.895	13261.25
951.123	13057.25
951.351	13114.25
951.58	12991.25
951.808	12855.25
952.036	12818.25
952.264	12749.25
952.492	12689.25
952.72	12626.25
952.948	12456.25
953.176	12489.25
953.404	12405.25
953.632	12314.25
953.86	12132.25
954.088	11952.25
954.315	12047.25
954.543	11866.25
954.771	11854.25
954.998	11821.25
955.226	11679.25
955.453	11631.25
955.681	11555.25
955.908	11589.25
956.135	11572.25
956.363	11518.25
956.59	11500.25
956.817	11432.25
957.045	11446.25
957.272	11381.25
957.499	11310.25
957.726	11312.25
957.953	11194.25
958.18	11170.25
958.407	11112.25
958.634	11039.25
958.861	10942.25
959.087	10871.25
959.314	10798.25
959.541	10794.25
959.767	10615.25
959.994	10573.25
960.221	10503.25
960.447	10327.25
960.674	10199.25
960.9	10214.25
961.127	10111.25
961.353	10080.25
961.579	10032.25
961.806	9932.25
962.032	9936.25
962.258	9855.25
962.484	9754.25
962.71	9779.25
962.936	9771.25
963.162	9671.25
963.388	9708.25
963.614	9641.25
963.84	9623.25
964.066	9615.25
964.292	9605.25
964.518	9561.25
964.743	9569.25
964.969	9470.25
965.195	9414.25
965.42	9287.25
965.646	9293.25
965.871	9232.25
966.097	9173.25
966.322	9114.25
966.547	9073.25
966.773	9067.25
966.998	9003.25
967.223	8928.25
967.448	8897.25
967.674	8829.25
967.899	8731.25
968.124	8741.25
968.349	8708.25
968.574	8651.25
968.799	8506.25
969.024	8516.25
969.248	8413.25
969.473	8422.25
969.698	8370.25
969.923	8347.25
970.147	8324.25
970.372	8239.25
970.596	8153.25
970.821	8169.25
971.046	8021.25
971.27	8038.25
971.494	7998.25
971.719	7936.25
971.943	7837.25
972.167	7801.25
972.392	7770.25
972.616	7713.25
972.84	7668.25
973.064	7587.25
973.288	7588.25
973.512	7567.25
973.736	7519.25
973.96	7535.25
974.184	7430.25
974.408	7414.25
974.631	7436.25
974.855	7425.25
975.079	7361.25
975.303	7325.25
975.526	7286.25
975.75	7290.25
975.973	7230.25
976.197	7132.25
976.42	7153.25
976.644	7120.25
976.867	7088.25
977.09	6964.25
977.313	6950.25
977.537	6913.25
977.76	6877.25
977.983	6890.25
978.206	6807.25
978.429	6747.25
978.652	6739.25
978.875	6682.25
979.098	6549.25
979.321	6503.25
979.544	6464.25
979.767	6446.25
979.989	6390.25
980.212	6279.25
980.435	6249.25
980.657	6249.25
980.88	6254.25
981.102	6235.25
981.325	6194.25
981.547	6149.25
981.77	6113.25
981.992	6094.25
982.214	6092.25
982.437	6014.25
982.659	5975.25
982.881	6010.25
983.103	5978.25
983.325	5983.25
983.547	5867.25
983.769	5874.25
983.991	5826.25
984.213	5851.25
984.435	5839.25
984.657	5745.25
984.879	5757.25
985.1	5698.25
985.322	5651.25
985.544	5614.25
985.765	5552.25
985.987	5566.25
986.208	5534.25
986.43	5510.25
986.651	5467.25
986.873	5440.25
987.094	5440.25
987.315	5340.25
987.536	5355.25
987.758	5324.25
987.979	5274.25
988.2	5273.25
988.421	5141.25
988.642	5191.25
988.863	5099.25
989.084	5078.25
989.305	5035.25
989.526	5010.25
989.747	4957.25
989.967	4917.25
990.188	4958.25
990.409	4908.25
990.629	4836.25
990.85	4827.25
991.071	4745.25
991.291	4749.25
991.512	4704.25
991.732	4672.25
991.952	4643.25
992.173	4601.25
992.393	4699.25
992.613	4587.25
992.834	4577.25
993.054	4576.25
993.274	4545.25
993.494	4511.25
993.714	4551.25
993.934	4453.25
994.154	4471.25
994.374	4436.25
994.594	4383.25
994.813	4404.25
995.033	4350.25
995.253	4344.25
995.473	4340.25
995.692	4360.25
995.912	4271.25
996.131	4212.25
996.351	4236.25
996.57	4163.25
996.79	4126.25
997.009	4114.25
997.228	4041.25
997.448	4046.25
997.667	3980.25
997.886	3941.25
998.105	3981.25
998.325	3884.25
998.544	3814.25
998.763	3859.25
998.982	3849.25
999.201	3763.25
999.419	3749.25
999.638	3742.25
999.857	3718.25
1000.076	3738.25
1000.295	3688.25
1000.513	3668.25
1000.732	3617.25
1000.95	3611.25
1001.169	3609.25
1001.388	3624.25
1001.606	3562.25
1001.824	3568.25
1002.043	3522.25
1002.261	3492.25
1002.479	3482.25
1002.698	3476.25
1002.916	3451.25
1003.134	3426.25
1003.352	3380.25
1003.57	3390.25
1003.788	3380.25
1004.006	3347.25
1004.224	3352.25
1004.442	3348.25
1004.66	3290.25
1004.878	3291.25
1005.095	3236.25
1005.313	3256.25
1005.531	3225.25
1005.748	3232.25
1005.966	3214.25
1006.184	3168.25
1006.401	3120.25
1006.618	3126.25
1006.836	3135.25
1007.053	3103.25
1007.271	3066.25
1007.488	3108.25
1007.705	3039.25
1007.922	3067.25
1008.139	3015.25
1008.357	3038.25
1008.574	2985.25
1008.791	3017.25
1009.008	2954.25
1009.225	3026.25
1009.441	2971.25
1009.658	2984.25
1009.875	2995.25
1010.092	2908.25
1010.309	2920.25
1010.525	2888.25
1010.742	2827.25
1010.958	2844.25
1011.175	2824.25
1011.391	2790.25
1011.608	2758.25
1011.824	2731.25
1012.041	2691.25
1012.257	2703.25
1012.473	2669.25
1012.689	2678.25
1012.906	2641.25
1013.122	2617.25
1013.338	2632.25
1013.554	2595.25
1013.77	2582.25
1013.986	2554.25
1014.202	2554.25
1014.418	2603.25
1014.634	2610.25
1014.849	2633.25
1015.065	2606.25
1015.281	2599.25
1015.496	2617.25
1015.712	2575.25
1015.928	2581.25
1016.143	2538.25
1016.359	2499.25
1016.574	2453.25
1016.79	2436.25
1017.005	2430.25
1017.22	2360.25
1017.435	2317.25
1017.651	2294.25
1017.866	2278.25
1018.081	2227.25
1018.296	2202.25
1018.511	2172.25
1018.726	2161.25
1018.941	2131.25
1019.156	2135.25
1019.371	2098.25
1019.586	2091.25
1019.801	2066.25
1020.015	2054.25
1020.23	2033.25
1020.445	2020.25
1020.659	2011.25
1020.874	1985.25
1021.088	1947.25
1021.303	1920.25
1021.517	1927.25
1021.732	1915.25
1021.946	1896.25
1022.16	1886.25
1022.375	1875.25
1022.589	1802.25
1022.803	1824.25
1023.017	1803.25
1023.231	1755.25
1023.445	1722.25
1023.659	1680.25
1023.873	1681.25
1024.087	1616.25
1024.301	1568.25
1024.515	1591.25
1024.729	1552.25
1024.942	1519.25
1025.156	1494.25
1025.37	1473.25
1025.583	1485.25
1025.797	1443.25
1026.01	1394.25
1026.224	1335.25
1026.437	1322.25
1026.651	1286.25
1026.864	1269.25
1027.077	1212.25
1027.291	1167.25
1027.504	1163.25
1027.717	1128.25
1027.93	1075.25
1028.143	1068.25
1028.356	1020.25
1028.569	957.25
1028.782	908.25
1028.995	-0.75
1029.208	-0.75
1029.421	-0.75
1029.634	-1.75
