Data from QEP037381__646__16-17-49-782.txt Node

Date: Mon Mar 14 16:17:49 EDT 2022
User: dcclab
Spectrometer: QEP03738
Trigger mode: 4
Integration Time (sec): 2.500000E0
Scans to average: 1
Electric dark correction enabled: true
Nonlinearity correction enabled: false
Boxcar width: 0
XAxis mode: Wavelengths
Number of Pixels in Spectrum: 1044
>>>>>Begin Spectral Data<<<<<
783.959	14.12
784.218	2.12
784.476	-2.88
784.734	-4.88
784.992	258.12
785.251	236.12
785.509	243.12
785.767	227.12
786.025	242.12
786.283	255.12
786.541	252.12
786.798	258.12
787.056	244.12
787.314	231.12
787.572	244.12
787.83	238.12
788.087	258.12
788.345	244.12
788.602	234.12
788.86	243.12
789.117	238.12
789.375	233.12
789.632	251.12
789.89	241.12
790.147	264.12
790.404	252.12
790.661	260.12
790.919	272.12
791.176	271.12
791.433	270.12
791.69	290.12
791.947	277.12
792.204	271.12
792.461	296.12
792.718	304.12
792.974	311.12
793.231	311.12
793.488	337.12
793.745	335.12
794.001	341.12
794.258	388.12
794.514	369.12
794.771	399.12
795.027	411.12
795.284	425.12
795.54	447.12
795.797	475.12
796.053	521.12
796.309	562.12
796.565	623.12
796.822	686.12
797.078	765.12
797.334	889.12
797.59	1053.12
797.846	1288.12
798.102	1648.12
798.358	2190.12
798.614	3116.12
798.869	4547.12
799.125	6736.12
799.381	9876.12
799.637	14012.12
799.892	19131.12
800.148	24638.12
800.403	30135.12
800.659	34751.12
800.914	38246.12
801.17	40851.12
801.425	42450.12
801.68	43634.12
801.936	44707.12
802.191	45825.12
802.446	46743.12
802.701	47776.12
802.957	48822.12
803.212	49699.12
803.467	50956.12
803.722	51856.12
803.977	52934.12
804.232	53893.12
804.486	55207.12
804.741	56229.12
804.996	57358.12
805.251	58342.12
805.505	59371.12
805.76	60225.12
806.015	61238.12
806.269	62153.12
806.524	63023.12
806.778	63553.12
807.033	64240.12
807.287	64874.12
807.541	65810.12
807.796	66780.12
808.05	67599.12
808.304	68271.12
808.558	68760.12
808.812	69244.12
809.066	69813.12
809.32	70387.12
809.574	70791.12
809.828	71255.12
810.082	71966.12
810.336	72636.12
810.59	73299.12
810.844	74143.12
811.097	75071.12
811.351	76272.12
811.605	77567.12
811.858	78646.12
812.112	79885.12
812.365	81271.12
812.619	82637.12
812.872	84032.12
813.126	84898.12
813.379	86100.12
813.632	87570.12
813.885	88582.12
814.139	90148.12
814.392	91180.12
814.645	92946.12
814.898	94675.12
815.151	96388.12
815.404	98261.12
815.657	99903.12
815.91	101264.12
816.163	102622.12
816.416	103598.12
816.668	104344.12
816.921	105068.12
817.174	105311.12
817.426	105439.12
817.679	105708.12
817.931	105673.12
818.184	105606.12
818.436	105684.12
818.689	105641.12
818.941	105990.12
819.194	106422.12
819.446	106668.12
819.698	107389.12
819.95	107786.12
820.202	108308.12
820.455	108587.12
820.707	108982.12
820.959	108889.12
821.211	109136.12
821.462	108965.12
821.714	108835.12
821.966	108321.12
822.218	108155.12
822.47	107198.12
822.722	107035.12
822.973	106756.12
823.225	106511.12
823.476	106501.12
823.728	106304.12
823.979	106454.12
824.231	106279.12
824.482	106672.12
824.734	106768.12
824.985	106645.12
825.236	106608.12
825.487	106018.12
825.739	106247.12
825.99	105817.12
826.241	105428.12
826.492	104882.12
826.743	104256.12
826.994	103772.12
827.245	103620.12
827.496	103654.12
827.747	103187.12
827.997	103388.12
828.248	103547.12
828.499	103589.12
828.75	103508.12
829	103560.12
829.251	103435.12
829.501	103471.12
829.752	102926.12
830.002	102818.12
830.253	101992.12
830.503	101372.12
830.753	100897.12
831.004	100188.12
831.254	99673.12
831.504	99655.12
831.754	99408.12
832.004	99047.12
832.254	99272.12
832.504	99444.12
832.754	99572.12
833.004	99564.12
833.254	99433.12
833.504	99102.12
833.754	98878.12
834.003	98520.12
834.253	98158.12
834.503	97585.12
834.752	96961.12
835.002	96380.12
835.252	95908.12
835.501	95540.12
835.75	95480.12
836	95384.12
836.249	95305.12
836.499	95014.12
836.748	95244.12
836.997	95126.12
837.246	95524.12
837.495	95463.12
837.744	95922.12
837.993	96408.12
838.242	96526.12
838.491	96524.12
838.74	95148.12
838.989	94263.12
839.238	93404.12
839.487	92901.12
839.736	92428.12
839.984	92241.12
840.233	91688.12
840.482	91401.12
840.73	90903.12
840.979	90469.12
841.227	90153.12
841.476	90116.12
841.724	89612.12
841.972	89498.12
842.221	89503.12
842.469	89273.12
842.717	88458.12
842.965	88372.12
843.213	88119.12
843.461	87882.12
843.71	87341.12
843.958	87240.12
844.205	86940.12
844.453	86633.12
844.701	86569.12
844.949	86518.12
845.197	86618.12
845.445	86623.12
845.692	86747.12
845.94	86923.12
846.188	86860.12
846.435	86813.12
846.683	86515.12
846.93	85902.12
847.178	85515.12
847.425	84946.12
847.672	84322.12
847.92	83400.12
848.167	83125.12
848.414	82309.12
848.661	81584.12
848.908	81237.12
849.155	80958.12
849.402	81021.12
849.649	81161.12
849.896	81151.12
850.143	81686.12
850.39	82048.12
850.637	82071.12
850.884	81672.12
851.131	81785.12
851.377	81497.12
851.624	81434.12
851.87	80823.12
852.117	80521.12
852.364	79964.12
852.61	79771.12
852.856	79860.12
853.103	79294.12
853.349	78987.12
853.595	78645.12
853.842	78219.12
854.088	78120.12
854.334	78193.12
854.58	77886.12
854.826	77249.12
855.072	77157.12
855.318	76423.12
855.564	75891.12
855.81	75337.12
856.056	74661.12
856.302	73833.12
856.548	73566.12
856.793	73076.12
857.039	72881.12
857.285	72690.12
857.53	72743.12
857.776	72821.12
858.021	72775.12
858.267	73176.12
858.512	73180.12
858.758	73190.12
859.003	73272.12
859.248	73288.12
859.493	73234.12
859.739	72833.12
859.984	72647.12
860.229	72202.12
860.474	71769.12
860.719	71568.12
860.964	71030.12
861.209	70705.12
861.454	70170.12
861.699	69856.12
861.943	69340.12
862.188	69158.12
862.433	68958.12
862.678	68791.12
862.922	68631.12
863.167	68557.12
863.411	68330.12
863.656	68331.12
863.9	68102.12
864.145	67832.12
864.389	67519.12
864.634	67148.12
864.878	66954.12
865.122	66636.12
865.366	66443.12
865.61	66175.12
865.855	66071.12
866.099	65956.12
866.343	65659.12
866.587	65527.12
866.831	65675.12
867.074	65736.12
867.318	65708.12
867.562	65600.12
867.806	65460.12
868.05	65378.12
868.293	65381.12
868.537	65135.12
868.78	64877.12
869.024	64492.12
869.267	63956.12
869.511	63514.12
869.754	63078.12
869.998	62424.12
870.241	62023.12
870.484	61633.12
870.728	61216.12
870.971	60852.12
871.214	60638.12
871.457	60372.12
871.7	60480.12
871.943	60372.12
872.186	60536.12
872.429	60594.12
872.672	60593.12
872.915	60383.12
873.158	60312.12
873.4	60047.12
873.643	59995.12
873.886	59717.12
874.128	59754.12
874.371	59409.12
874.613	59385.12
874.856	58893.12
875.098	58723.12
875.341	58700.12
875.583	58493.12
875.825	58367.12
876.068	58268.12
876.31	57731.12
876.552	57290.12
876.794	56815.12
877.036	56274.12
877.278	55889.12
877.52	55780.12
877.762	55381.12
878.004	55125.12
878.246	55033.12
878.488	55117.12
878.73	55183.12
878.972	54881.12
879.213	54849.12
879.455	54791.12
879.697	54644.12
879.938	54486.12
880.18	54504.12
880.421	54054.12
880.663	54077.12
880.904	54026.12
881.145	54180.12
881.387	54232.12
881.628	54029.12
881.869	53953.12
882.11	53615.12
882.352	53525.12
882.593	53355.12
882.834	53224.12
883.075	52971.12
883.316	52900.12
883.557	52824.12
883.797	52488.12
884.038	52077.12
884.279	51705.12
884.52	51047.12
884.761	50535.12
885.001	50109.12
885.242	49690.12
885.482	49576.12
885.723	49016.12
885.963	48791.12
886.204	48513.12
886.444	48335.12
886.685	48331.12
886.925	48127.12
887.165	47887.12
887.405	47803.12
887.646	47523.12
887.886	47442.12
888.126	47367.12
888.366	47455.12
888.606	47469.12
888.846	47619.12
889.086	47791.12
889.326	47555.12
889.565	47591.12
889.805	47492.12
890.045	47303.12
890.285	47342.12
890.524	47136.12
890.764	46973.12
891.003	46446.12
891.243	46104.12
891.482	45644.12
891.722	45311.12
891.961	45018.12
892.201	44668.12
892.44	44500.12
892.679	44074.12
892.918	44078.12
893.158	43846.12
893.397	43939.12
893.636	43551.12
893.875	43666.12
894.114	43275.12
894.353	43198.12
894.592	43065.12
894.831	43015.12
895.069	42590.12
895.308	42446.12
895.547	42070.12
895.786	41815.12
896.024	41691.12
896.263	41712.12
896.501	41637.12
896.74	41763.12
896.978	41551.12
897.217	41441.12
897.455	41390.12
897.694	41241.12
897.932	41064.12
898.17	40938.12
898.408	40895.12
898.646	40736.12
898.885	40541.12
899.123	40092.12
899.361	39969.12
899.599	39852.12
899.837	39531.12
900.075	39286.12
900.312	38963.12
900.55	38562.12
900.788	38198.12
901.026	37978.12
901.263	37634.12
901.501	37347.12
901.739	37131.12
901.976	36997.12
902.214	36857.12
902.451	36724.12
902.689	36703.12
902.926	36471.12
903.163	36429.12
903.401	36540.12
903.638	36444.12
903.875	36520.12
904.112	36361.12
904.349	36228.12
904.586	36096.12
904.823	36114.12
905.06	35990.12
905.297	35882.12
905.534	35377.12
905.771	35024.12
906.008	34973.12
906.245	34865.12
906.481	34504.12
906.718	34370.12
906.955	34251.12
907.191	34022.12
907.428	33768.12
907.664	33767.12
907.901	33621.12
908.137	33445.12
908.374	33355.12
908.61	33292.12
908.846	33138.12
909.083	33014.12
909.319	32710.12
909.555	32684.12
909.791	32352.12
910.027	32075.12
910.263	31787.12
910.499	31569.12
910.735	31191.12
910.971	31108.12
911.207	30965.12
911.443	30716.12
911.678	30611.12
911.914	30566.12
912.15	30426.12
912.385	30392.12
912.621	30457.12
912.857	30257.12
913.092	30300.12
913.328	30177.12
913.563	30176.12
913.798	30141.12
914.034	30122.12
914.269	30124.12
914.504	29887.12
914.739	29767.12
914.975	29761.12
915.21	29354.12
915.445	29168.12
915.68	28893.12
915.915	28779.12
916.15	28352.12
916.384	28006.12
916.619	27707.12
916.854	27495.12
917.089	27391.12
917.324	27245.12
917.558	26942.12
917.793	26874.12
918.028	26706.12
918.262	26682.12
918.497	26662.12
918.731	26467.12
918.965	26530.12
919.2	26479.12
919.434	26623.12
919.668	26372.12
919.903	26346.12
920.137	26195.12
920.371	26128.12
920.605	25926.12
920.839	25737.12
921.073	25486.12
921.307	25288.12
921.541	25100.12
921.775	25012.12
922.009	24839.12
922.243	24851.12
922.476	24793.12
922.71	24703.12
922.944	24817.12
923.177	24677.12
923.411	24446.12
923.644	24518.12
923.878	24489.12
924.111	24334.12
924.345	24205.12
924.578	24120.12
924.811	23874.12
925.045	23753.12
925.278	23659.12
925.511	23566.12
925.744	23325.12
925.977	23097.12
926.21	22873.12
926.443	22746.12
926.676	22670.12
926.909	22338.12
927.142	22165.12
927.375	22055.12
927.608	21906.12
927.841	21811.12
928.073	21699.12
928.306	21706.12
928.539	21630.12
928.771	21607.12
929.004	21585.12
929.236	21633.12
929.469	21574.12
929.701	21538.12
929.933	21506.12
930.166	21437.12
930.398	21361.12
930.63	21280.12
930.862	21332.12
931.094	21221.12
931.327	21033.12
931.559	21011.12
931.791	20774.12
932.023	20657.12
932.255	20446.12
932.486	20355.12
932.718	20100.12
932.95	19986.12
933.182	19947.12
933.413	19767.12
933.645	19611.12
933.877	19581.12
934.108	19563.12
934.34	19427.12
934.571	19343.12
934.803	19249.12
935.034	19160.12
935.265	19157.12
935.497	19076.12
935.728	18898.12
935.959	18857.12
936.19	18730.12
936.422	18625.12
936.653	18586.12
936.884	18411.12
937.115	18295.12
937.346	18228.12
937.577	18065.12
937.807	17873.12
938.038	17873.12
938.269	17795.12
938.5	17759.12
938.73	17648.12
938.961	17831.12
939.192	17659.12
939.422	17660.12
939.653	17644.12
939.883	17548.12
940.114	17431.12
940.344	17456.12
940.574	17337.12
940.805	17198.12
941.035	17098.12
941.265	16938.12
941.495	16714.12
941.726	16783.12
941.956	16526.12
942.186	16404.12
942.416	16282.12
942.646	16136.12
942.876	16170.12
943.105	15924.12
943.335	15751.12
943.565	15665.12
943.795	15512.12
944.024	15430.12
944.254	15213.12
944.484	15095.12
944.713	15130.12
944.943	14941.12
945.172	14874.12
945.402	14827.12
945.631	14835.12
945.86	14778.12
946.09	14773.12
946.319	14607.12
946.548	14668.12
946.777	14615.12
947.006	14484.12
947.235	14406.12
947.465	14346.12
947.694	14214.12
947.922	14179.12
948.151	14005.12
948.38	13859.12
948.609	13812.12
948.838	13679.12
949.067	13607.12
949.295	13484.12
949.524	13364.12
949.752	13309.12
949.981	13315.12
950.21	13032.12
950.438	13023.12
950.666	12918.12
950.895	12921.12
951.123	12709.12
951.351	12702.12
951.58	12588.12
951.808	12519.12
952.036	12448.12
952.264	12369.12
952.492	12254.12
952.72	12253.12
952.948	12151.12
953.176	12142.12
953.404	11910.12
953.632	11874.12
953.86	11745.12
954.088	11618.12
954.315	11569.12
954.543	11486.12
954.771	11447.12
954.998	11336.12
955.226	11260.12
955.453	11249.12
955.681	11169.12
955.908	11128.12
956.135	11092.12
956.363	11086.12
956.59	11095.12
956.817	11015.12
957.045	11013.12
957.272	11005.12
957.499	10914.12
957.726	10862.12
957.953	10745.12
958.18	10741.12
958.407	10709.12
958.634	10588.12
958.861	10509.12
959.087	10534.12
959.314	10352.12
959.541	10371.12
959.767	10212.12
959.994	10170.12
960.221	10098.12
960.447	9954.12
960.674	9854.12
960.9	9755.12
961.127	9799.12
961.353	9665.12
961.579	9599.12
961.806	9632.12
962.032	9531.12
962.258	9452.12
962.484	9407.12
962.71	9353.12
962.936	9342.12
963.162	9387.12
963.388	9266.12
963.614	9308.12
963.84	9183.12
964.066	9258.12
964.292	9164.12
964.518	9177.12
964.743	9160.12
964.969	9067.12
965.195	9048.12
965.42	8925.12
965.646	8891.12
965.871	8908.12
966.097	8832.12
966.322	8797.12
966.547	8744.12
966.773	8627.12
966.998	8611.12
967.223	8531.12
967.448	8554.12
967.674	8503.12
967.899	8441.12
968.124	8371.12
968.349	8341.12
968.574	8288.12
968.799	8230.12
969.024	8199.12
969.248	8149.12
969.473	8110.12
969.698	8016.12
969.923	7937.12
970.147	7977.12
970.372	7879.12
970.596	7822.12
970.821	7855.12
971.046	7717.12
971.27	7739.12
971.494	7675.12
971.719	7588.12
971.943	7484.12
972.167	7489.12
972.392	7411.12
972.616	7459.12
972.84	7403.12
973.064	7366.12
973.288	7328.12
973.512	7270.12
973.736	7229.12
973.96	7258.12
974.184	7215.12
974.408	7166.12
974.631	7173.12
974.855	7128.12
975.079	7062.12
975.303	7117.12
975.526	7081.12
975.75	6966.12
975.973	6975.12
976.197	6921.12
976.42	6836.12
976.644	6834.12
976.867	6844.12
977.09	6697.12
977.313	6705.12
977.537	6658.12
977.76	6617.12
977.983	6618.12
978.206	6463.12
978.429	6498.12
978.652	6448.12
978.875	6374.12
979.098	6320.12
979.321	6303.12
979.544	6259.12
979.767	6275.12
979.989	6182.12
980.212	6109.12
980.435	6155.12
980.657	6076.12
980.88	6036.12
981.102	6025.12
981.325	6027.12
981.547	5947.12
981.77	5916.12
981.992	5855.12
982.214	5846.12
982.437	5827.12
982.659	5833.12
982.881	5764.12
983.103	5754.12
983.325	5714.12
983.547	5724.12
983.769	5725.12
983.991	5648.12
984.213	5642.12
984.435	5631.12
984.657	5544.12
984.879	5569.12
985.1	5595.12
985.322	5458.12
985.544	5493.12
985.765	5413.12
985.987	5406.12
986.208	5415.12
986.43	5411.12
986.651	5366.12
986.873	5303.12
987.094	5313.12
987.315	5282.12
987.536	5193.12
987.758	5158.12
987.979	5156.12
988.2	5142.12
988.421	5099.12
988.642	5068.12
988.863	4994.12
989.084	4943.12
989.305	4984.12
989.526	4929.12
989.747	4887.12
989.967	4862.12
990.188	4849.12
990.409	4765.12
990.629	4772.12
990.85	4692.12
991.071	4719.12
991.291	4672.12
991.512	4668.12
991.732	4594.12
991.952	4573.12
992.173	4579.12
992.393	4571.12
992.613	4523.12
992.834	4544.12
993.054	4504.12
993.274	4476.12
993.494	4502.12
993.714	4506.12
993.934	4488.12
994.154	4466.12
994.374	4441.12
994.594	4387.12
994.813	4355.12
995.033	4415.12
995.253	4356.12
995.473	4355.12
995.692	4251.12
995.912	4280.12
996.131	4252.12
996.351	4208.12
996.57	4183.12
996.79	4172.12
997.009	4114.12
997.228	4089.12
997.448	4051.12
997.667	3994.12
997.886	3944.12
998.105	3944.12
998.325	3871.12
998.544	3885.12
998.763	3873.12
998.982	3860.12
999.201	3828.12
999.419	3793.12
999.638	3733.12
999.857	3726.12
1000.076	3786.12
1000.295	3729.12
1000.513	3733.12
1000.732	3667.12
1000.95	3641.12
1001.169	3707.12
1001.388	3647.12
1001.606	3614.12
1001.824	3606.12
1002.043	3581.12
1002.261	3553.12
1002.479	3590.12
1002.698	3542.12
1002.916	3575.12
1003.134	3514.12
1003.352	3505.12
1003.57	3458.12
1003.788	3529.12
1004.006	3456.12
1004.224	3489.12
1004.442	3443.12
1004.66	3438.12
1004.878	3431.12
1005.095	3393.12
1005.313	3368.12
1005.531	3342.12
1005.748	3364.12
1005.966	3475.12
1006.184	3310.12
1006.401	3331.12
1006.618	3268.12
1006.836	3289.12
1007.053	3288.12
1007.271	3256.12
1007.488	3243.12
1007.705	3266.12
1007.922	3248.12
1008.139	3192.12
1008.357	3256.12
1008.574	3236.12
1008.791	3242.12
1009.008	3272.12
1009.225	3231.12
1009.441	3303.12
1009.658	3293.12
1009.875	3289.12
1010.092	3307.12
1010.309	3272.12
1010.525	3207.12
1010.742	3173.12
1010.958	3094.12
1011.175	3156.12
1011.391	3072.12
1011.608	3125.12
1011.824	3080.12
1012.041	3018.12
1012.257	3015.12
1012.473	2980.12
1012.689	2971.12
1012.906	2938.12
1013.122	2926.12
1013.338	2891.12
1013.554	2916.12
1013.77	2914.12
1013.986	2911.12
1014.202	2957.12
1014.418	2989.12
1014.634	2991.12
1014.849	3029.12
1015.065	3071.12
1015.281	3059.12
1015.496	3025.12
1015.712	3003.12
1015.928	3000.12
1016.143	2947.12
1016.359	2900.12
1016.574	2826.12
1016.79	2789.12
1017.005	2764.12
1017.22	2735.12
1017.435	2671.12
1017.651	2619.12
1017.866	2552.12
1018.081	2545.12
1018.296	2485.12
1018.511	2481.12
1018.726	2457.12
1018.941	2393.12
1019.156	2389.12
1019.371	2389.12
1019.586	2384.12
1019.801	2348.12
1020.015	2374.12
1020.23	2329.12
1020.445	2333.12
1020.659	2293.12
1020.874	2257.12
1021.088	2228.12
1021.303	2190.12
1021.517	2158.12
1021.732	2156.12
1021.946	2155.12
1022.16	2127.12
1022.375	2089.12
1022.589	2075.12
1022.803	2003.12
1023.017	1984.12
1023.231	1949.12
1023.445	1935.12
1023.659	1864.12
1023.873	1885.12
1024.087	1807.12
1024.301	1791.12
1024.515	1769.12
1024.729	1765.12
1024.942	1695.12
1025.156	1712.12
1025.37	1645.12
1025.583	1615.12
1025.797	1571.12
1026.01	1562.12
1026.224	1514.12
1026.437	1493.12
1026.651	1461.12
1026.864	1400.12
1027.077	1390.12
1027.291	1341.12
1027.504	1362.12
1027.717	1264.12
1027.93	1239.12
1028.143	1235.12
1028.356	1177.12
1028.569	1109.12
1028.782	1054.12
1028.995	-2.88
1029.208	0.12
1029.421	-3.88
1029.634	-1.88
