Data from QEP037381__670__16-18-49-783.txt Node

Date: Mon Mar 14 16:18:49 EDT 2022
User: dcclab
Spectrometer: QEP03738
Trigger mode: 4
Integration Time (sec): 2.500000E0
Scans to average: 1
Electric dark correction enabled: true
Nonlinearity correction enabled: false
Boxcar width: 0
XAxis mode: Wavelengths
Number of Pixels in Spectrum: 1044
>>>>>Begin Spectral Data<<<<<
783.959	12.88
784.218	-0.12
784.476	-5.12
784.734	-3.12
784.992	265.88
785.251	252.88
785.509	242.88
785.767	248.88
786.025	256.88
786.283	244.88
786.541	253.88
786.798	255.88
787.056	250.88
787.314	230.88
787.572	240.88
787.83	256.88
788.087	251.88
788.345	246.88
788.602	239.88
788.86	251.88
789.117	263.88
789.375	253.88
789.632	256.88
789.89	258.88
790.147	271.88
790.404	271.88
790.661	271.88
790.919	301.88
791.176	284.88
791.433	291.88
791.69	305.88
791.947	295.88
792.204	287.88
792.461	322.88
792.718	324.88
792.974	321.88
793.231	341.88
793.488	367.88
793.745	355.88
794.001	379.88
794.258	404.88
794.514	395.88
794.771	431.88
795.027	443.88
795.284	451.88
795.54	489.88
795.797	522.88
796.053	559.88
796.309	592.88
796.565	675.88
796.822	732.88
797.078	801.88
797.334	954.88
797.59	1147.88
797.846	1363.88
798.102	1771.88
798.358	2409.88
798.614	3407.88
798.869	4946.88
799.125	7323.88
799.381	10678.88
799.637	15217.88
799.892	20665.88
800.148	26594.88
800.403	32487.88
800.659	37446.88
800.914	41520.88
801.17	44121.88
801.425	45930.88
801.68	47230.88
801.936	48414.88
802.191	49458.88
802.446	50611.88
802.701	51694.88
802.957	52832.88
803.212	53913.88
803.467	55017.88
803.722	56076.88
803.977	57118.88
804.232	58303.88
804.486	59569.88
804.741	60697.88
804.996	61872.88
805.251	62884.88
805.505	64326.88
805.76	65425.88
806.015	66227.88
806.269	67237.88
806.524	68231.88
806.778	68822.88
807.033	69297.88
807.287	70359.88
807.541	71224.88
807.796	72364.88
808.05	73186.88
808.304	73807.88
808.558	74317.88
808.812	74892.88
809.066	75522.88
809.32	76060.88
809.574	76652.88
809.828	77284.88
810.082	77645.88
810.336	78466.88
810.59	79187.88
810.844	80194.88
811.097	81235.88
811.351	82380.88
811.605	83566.88
811.858	84963.88
812.112	86460.88
812.365	87521.88
812.619	89379.88
812.872	90436.88
813.126	91728.88
813.379	93128.88
813.632	94455.88
813.885	95640.88
814.139	97193.88
814.392	98653.88
814.645	100346.88
814.898	102198.88
815.151	104216.88
815.404	105941.88
815.657	107599.88
815.91	109035.88
816.163	110774.88
816.416	111651.88
816.668	112699.88
816.921	113279.88
817.174	113798.88
817.426	113875.88
817.679	114113.88
817.931	113969.88
818.184	113733.88
818.436	114147.88
818.689	114049.88
818.941	114483.88
819.194	114825.88
819.446	115170.88
819.698	115843.88
819.95	116232.88
820.202	116636.88
820.455	117088.88
820.707	117549.88
820.959	117478.88
821.211	117529.88
821.462	117651.88
821.714	117517.88
821.966	117020.88
822.218	116350.88
822.47	115919.88
822.722	115298.88
822.973	115069.88
823.225	114878.88
823.476	114856.88
823.728	114882.88
823.979	114726.88
824.231	114786.88
824.482	114803.88
824.734	114846.88
824.985	114980.88
825.236	114648.88
825.487	114453.88
825.739	114287.88
825.99	114226.88
826.241	113693.88
826.492	113012.88
826.743	112630.88
826.994	112112.88
827.245	111600.88
827.496	111482.88
827.747	111389.88
827.997	111396.88
828.248	111477.88
828.499	111594.88
828.75	111558.88
829	111883.88
829.251	111513.88
829.501	111364.88
829.752	111135.88
830.002	110786.88
830.253	109894.88
830.503	109279.88
830.753	108299.88
831.004	107758.88
831.254	107501.88
831.504	107295.88
831.754	106935.88
832.004	107038.88
832.254	107222.88
832.504	107166.88
832.754	107172.88
833.004	107235.88
833.254	106941.88
833.504	106762.88
833.754	106421.88
834.003	106043.88
834.253	105596.88
834.503	105056.88
834.752	104407.88
835.002	103780.88
835.252	103236.88
835.501	102987.88
835.75	102757.88
836	102580.88
836.249	102379.88
836.499	102493.88
836.748	102455.88
836.997	102195.88
837.246	102573.88
837.495	102989.88
837.744	103195.88
837.993	103465.88
838.242	103992.88
838.491	103570.88
838.74	102607.88
838.989	101316.88
839.238	100428.88
839.487	99702.88
839.736	99536.88
839.984	99067.88
840.233	98719.88
840.482	98040.88
840.73	97810.88
840.979	97349.88
841.227	96963.88
841.476	96900.88
841.724	96477.88
841.972	96116.88
842.221	96100.88
842.469	95704.88
842.717	95248.88
842.965	95041.88
843.213	94943.88
843.461	94561.88
843.71	93745.88
843.958	93543.88
844.205	93415.88
844.453	93236.88
844.701	93233.88
844.949	93270.88
845.197	93037.88
845.445	92946.88
845.692	93170.88
845.94	93221.88
846.188	92976.88
846.435	93168.88
846.683	92680.88
846.93	92603.88
847.178	92066.88
847.425	91227.88
847.672	90497.88
847.92	89867.88
848.167	88966.88
848.414	88098.88
848.661	87719.88
848.908	87200.88
849.155	87133.88
849.402	86885.88
849.649	86784.88
849.896	87075.88
850.143	87583.88
850.39	88108.88
850.637	87757.88
850.884	87851.88
851.131	87808.88
851.377	87737.88
851.624	87396.88
851.87	86823.88
852.117	86439.88
852.364	85955.88
852.61	85917.88
852.856	85423.88
853.103	85228.88
853.349	84859.88
853.595	84408.88
853.842	83771.88
854.088	84080.88
854.334	83738.88
854.58	83821.88
854.826	83210.88
855.072	82826.88
855.318	82261.88
855.564	81431.88
855.81	80697.88
856.056	80044.88
856.302	79071.88
856.548	78811.88
856.793	78530.88
857.039	78098.88
857.285	78024.88
857.53	77965.88
857.776	78109.88
858.021	78250.88
858.267	78326.88
858.512	78550.88
858.758	78728.88
859.003	78775.88
859.248	78470.88
859.493	78650.88
859.739	78284.88
859.984	77664.88
860.229	77610.88
860.474	77140.88
860.719	76688.88
860.964	76406.88
861.209	75743.88
861.454	75351.88
861.699	75002.88
861.943	74609.88
862.188	74220.88
862.433	73941.88
862.678	73874.88
862.922	73530.88
863.167	73360.88
863.411	73114.88
863.656	73076.88
863.9	73048.88
864.145	72670.88
864.389	72360.88
864.634	71845.88
864.878	71736.88
865.122	71488.88
865.366	71386.88
865.61	70879.88
865.855	70915.88
866.099	70750.88
866.343	70509.88
866.587	70568.88
866.831	70281.88
867.074	70308.88
867.318	70181.88
867.562	70367.88
867.806	70253.88
868.05	70113.88
868.293	70111.88
868.537	69836.88
868.78	69466.88
869.024	69248.88
869.267	68561.88
869.511	68026.88
869.754	67387.88
869.998	66949.88
870.241	66376.88
870.484	65950.88
870.728	65522.88
870.971	65120.88
871.214	64944.88
871.457	64765.88
871.7	64632.88
871.943	64805.88
872.186	64852.88
872.429	64872.88
872.672	64816.88
872.915	64595.88
873.158	64594.88
873.4	64357.88
873.643	64160.88
873.886	64134.88
874.128	63953.88
874.371	63900.88
874.613	63497.88
874.856	63186.88
875.098	63101.88
875.341	62903.88
875.583	62663.88
875.825	62531.88
876.068	62073.88
876.31	61608.88
876.552	61308.88
876.794	60714.88
877.036	60310.88
877.278	59749.88
877.52	59552.88
877.762	59371.88
878.004	59031.88
878.246	59024.88
878.488	58979.88
878.73	58865.88
878.972	58830.88
879.213	58688.88
879.455	58649.88
879.697	58480.88
879.938	58475.88
880.18	58151.88
880.421	58003.88
880.663	57787.88
880.904	57753.88
881.145	57713.88
881.387	57870.88
881.628	58022.88
881.869	57563.88
882.11	57587.88
882.352	57119.88
882.593	56860.88
882.834	56893.88
883.075	56887.88
883.316	56590.88
883.557	56483.88
883.797	56172.88
884.038	55794.88
884.279	55233.88
884.52	54568.88
884.761	53996.88
885.001	53675.88
885.242	53039.88
885.482	52929.88
885.723	52591.88
885.963	52338.88
886.204	52100.88
886.444	51622.88
886.685	51824.88
886.925	51396.88
887.165	51402.88
887.405	51076.88
887.646	50999.88
887.886	50736.88
888.126	50509.88
888.366	50588.88
888.606	50798.88
888.846	50883.88
889.086	50857.88
889.326	50742.88
889.565	50877.88
889.805	50797.88
890.045	50629.88
890.285	50437.88
890.524	50346.88
890.764	50152.88
891.003	49690.88
891.243	49224.88
891.482	48970.88
891.722	48390.88
891.961	48151.88
892.201	47958.88
892.44	47515.88
892.679	47260.88
892.918	47194.88
893.158	46990.88
893.397	46932.88
893.636	46819.88
893.875	46520.88
894.114	46370.88
894.353	46352.88
894.592	45911.88
894.831	45910.88
895.069	45592.88
895.308	45225.88
895.547	44981.88
895.786	44839.88
896.024	44565.88
896.263	44484.88
896.501	44419.88
896.74	44591.88
896.978	44375.88
897.217	44314.88
897.455	44114.88
897.694	43919.88
897.932	43968.88
898.17	43809.88
898.408	43728.88
898.646	43786.88
898.885	43378.88
899.123	43008.88
899.361	42796.88
899.599	42401.88
899.837	42322.88
900.075	42127.88
900.312	41659.88
900.55	41346.88
900.788	40962.88
901.026	40561.88
901.263	40352.88
901.501	40002.88
901.739	39771.88
901.976	39525.88
902.214	39274.88
902.451	39202.88
902.689	39127.88
902.926	39018.88
903.163	39050.88
903.401	39055.88
903.638	38987.88
903.875	38939.88
904.112	38956.88
904.349	38935.88
904.586	38765.88
904.823	38532.88
905.06	38344.88
905.297	38206.88
905.534	37645.88
905.771	37646.88
906.008	37545.88
906.245	37166.88
906.481	36937.88
906.718	36778.88
906.955	36527.88
907.191	36514.88
907.428	36142.88
907.664	36087.88
907.901	36011.88
908.137	35873.88
908.374	35802.88
908.61	35592.88
908.846	35293.88
909.083	35181.88
909.319	35024.88
909.555	34987.88
909.791	34438.88
910.027	34239.88
910.263	33923.88
910.499	33682.88
910.735	33471.88
910.971	33304.88
911.207	33181.88
911.443	32960.88
911.678	32838.88
911.914	32576.88
912.15	32423.88
912.385	32646.88
912.621	32469.88
912.857	32549.88
913.092	32418.88
913.328	32333.88
913.563	32180.88
913.798	32137.88
914.034	32242.88
914.269	32143.88
914.504	32034.88
914.739	31830.88
914.975	31633.88
915.21	31543.88
915.445	31132.88
915.68	31022.88
915.915	30680.88
916.15	30343.88
916.384	30021.88
916.619	29621.88
916.854	29328.88
917.089	29173.88
917.324	28999.88
917.558	28862.88
917.793	28542.88
918.028	28537.88
918.262	28432.88
918.497	28499.88
918.731	28383.88
918.965	28400.88
919.2	28264.88
919.434	28258.88
919.668	28265.88
919.903	28179.88
920.137	27981.88
920.371	27859.88
920.605	27625.88
920.839	27423.88
921.073	27187.88
921.307	26957.88
921.541	26898.88
921.775	26549.88
922.009	26593.88
922.243	26568.88
922.476	26451.88
922.71	26498.88
922.944	26286.88
923.177	26296.88
923.411	26269.88
923.644	26234.88
923.878	26109.88
924.111	26010.88
924.345	25853.88
924.578	25733.88
924.811	25520.88
925.045	25391.88
925.278	25215.88
925.511	25149.88
925.744	24892.88
925.977	24609.88
926.21	24377.88
926.443	24259.88
926.676	24029.88
926.909	23940.88
927.142	23728.88
927.375	23617.88
927.608	23392.88
927.841	23247.88
928.073	23270.88
928.306	23049.88
928.539	23038.88
928.771	22979.88
929.004	22925.88
929.236	22980.88
929.469	22910.88
929.701	22925.88
929.933	22928.88
930.166	22886.88
930.398	22934.88
930.63	22743.88
930.862	22714.88
931.094	22680.88
931.327	22548.88
931.559	22281.88
931.791	22161.88
932.023	22020.88
932.255	21816.88
932.486	21703.88
932.718	21515.88
932.95	21271.88
933.182	21247.88
933.413	21074.88
933.645	21022.88
933.877	20811.88
934.108	20747.88
934.34	20710.88
934.571	20600.88
934.803	20612.88
935.034	20393.88
935.265	20355.88
935.497	20194.88
935.728	20159.88
935.959	20004.88
936.19	19915.88
936.422	19761.88
936.653	19593.88
936.884	19599.88
937.115	19451.88
937.346	19419.88
937.577	19305.88
937.807	19106.88
938.038	19036.88
938.269	18944.88
938.5	19020.88
938.73	18919.88
938.961	18823.88
939.192	18894.88
939.422	18904.88
939.653	18864.88
939.883	18677.88
940.114	18541.88
940.344	18554.88
940.574	18524.88
940.805	18301.88
941.035	18207.88
941.265	17995.88
941.495	17922.88
941.726	17862.88
941.956	17673.88
942.186	17555.88
942.416	17387.88
942.646	17249.88
942.876	17075.88
943.105	16973.88
943.335	16754.88
943.565	16571.88
943.795	16594.88
944.024	16379.88
944.254	16265.88
944.484	16222.88
944.713	16053.88
944.943	15955.88
945.172	15884.88
945.402	15825.88
945.631	15706.88
945.86	15739.88
946.09	15623.88
946.319	15604.88
946.548	15476.88
946.777	15473.88
947.006	15390.88
947.235	15341.88
947.465	15278.88
947.694	15090.88
947.922	15032.88
948.151	14915.88
948.38	14776.88
948.609	14668.88
948.838	14509.88
949.067	14525.88
949.295	14366.88
949.524	14271.88
949.752	14121.88
949.981	14109.88
950.21	13969.88
950.438	13812.88
950.666	13760.88
950.895	13631.88
951.123	13625.88
951.351	13462.88
951.58	13467.88
951.808	13322.88
952.036	13226.88
952.264	13236.88
952.492	13049.88
952.72	12909.88
952.948	12898.88
953.176	12877.88
953.404	12764.88
953.632	12647.88
953.86	12540.88
954.088	12375.88
954.315	12301.88
954.543	12183.88
954.771	12140.88
954.998	12083.88
955.226	12012.88
955.453	11986.88
955.681	11906.88
955.908	11893.88
956.135	11918.88
956.363	11795.88
956.59	11812.88
956.817	11745.88
957.045	11652.88
957.272	11615.88
957.499	11645.88
957.726	11513.88
957.953	11493.88
958.18	11392.88
958.407	11398.88
958.634	11280.88
958.861	11166.88
959.087	11118.88
959.314	11007.88
959.541	10941.88
959.767	10926.88
959.994	10817.88
960.221	10701.88
960.447	10608.88
960.674	10592.88
960.9	10487.88
961.127	10301.88
961.353	10280.88
961.579	10214.88
961.806	10133.88
962.032	10058.88
962.258	10055.88
962.484	9965.88
962.71	9987.88
962.936	9920.88
963.162	9903.88
963.388	9861.88
963.614	9918.88
963.84	9851.88
964.066	9793.88
964.292	9745.88
964.518	9729.88
964.743	9686.88
964.969	9564.88
965.195	9551.88
965.42	9485.88
965.646	9463.88
965.871	9491.88
966.097	9376.88
966.322	9304.88
966.547	9206.88
966.773	9217.88
966.998	9205.88
967.223	9028.88
967.448	9106.88
967.674	9081.88
967.899	8955.88
968.124	8875.88
968.349	8832.88
968.574	8807.88
968.799	8692.88
969.024	8692.88
969.248	8659.88
969.473	8594.88
969.698	8570.88
969.923	8405.88
970.147	8429.88
970.372	8346.88
970.596	8354.88
970.821	8382.88
971.046	8259.88
971.27	8223.88
971.494	8151.88
971.719	8111.88
971.943	7995.88
972.167	7968.88
972.392	7940.88
972.616	7891.88
972.84	7847.88
973.064	7743.88
973.288	7720.88
973.512	7688.88
973.736	7696.88
973.96	7702.88
974.184	7630.88
974.408	7573.88
974.631	7592.88
974.855	7535.88
975.079	7515.88
975.303	7419.88
975.526	7453.88
975.75	7389.88
975.973	7349.88
976.197	7382.88
976.42	7328.88
976.644	7273.88
976.867	7226.88
977.09	7175.88
977.313	7133.88
977.537	7106.88
977.76	7015.88
977.983	7017.88
978.206	6945.88
978.429	6847.88
978.652	6881.88
978.875	6758.88
979.098	6772.88
979.321	6792.88
979.544	6605.88
979.767	6581.88
979.989	6553.88
980.212	6562.88
980.435	6529.88
980.657	6405.88
980.88	6424.88
981.102	6404.88
981.325	6396.88
981.547	6350.88
981.77	6269.88
981.992	6300.88
982.214	6239.88
982.437	6199.88
982.659	6227.88
982.881	6201.88
983.103	6107.88
983.325	6089.88
983.547	6054.88
983.769	6049.88
983.991	6028.88
984.213	6033.88
984.435	5969.88
984.657	5938.88
984.879	5939.88
985.1	5815.88
985.322	5850.88
985.544	5769.88
985.765	5776.88
985.987	5740.88
986.208	5706.88
986.43	5725.88
986.651	5646.88
986.873	5616.88
987.094	5596.88
987.315	5541.88
987.536	5565.88
987.758	5516.88
987.979	5438.88
988.2	5423.88
988.421	5411.88
988.642	5329.88
988.863	5266.88
989.084	5240.88
989.305	5276.88
989.526	5215.88
989.747	5148.88
989.967	5163.88
990.188	5087.88
990.409	5076.88
990.629	5038.88
990.85	5038.88
991.071	4946.88
991.291	4995.88
991.512	4965.88
991.732	4910.88
991.952	4897.88
992.173	4839.88
992.393	4894.88
992.613	4787.88
992.834	4837.88
993.054	4795.88
993.274	4789.88
993.494	4737.88
993.714	4724.88
993.934	4762.88
994.154	4759.88
994.374	4749.88
994.594	4669.88
994.813	4660.88
995.033	4631.88
995.253	4605.88
995.473	4594.88
995.692	4513.88
995.912	4528.88
996.131	4513.88
996.351	4469.88
996.57	4434.88
996.79	4415.88
997.009	4311.88
997.228	4364.88
997.448	4285.88
997.667	4209.88
997.886	4170.88
998.105	4207.88
998.325	4143.88
998.544	4110.88
998.763	4100.88
998.982	4118.88
999.201	4014.88
999.419	4041.88
999.638	3992.88
999.857	3985.88
1000.076	3941.88
1000.295	3941.88
1000.513	3931.88
1000.732	3892.88
1000.95	3840.88
1001.169	3875.88
1001.388	3847.88
1001.606	3849.88
1001.824	3825.88
1002.043	3783.88
1002.261	3796.88
1002.479	3808.88
1002.698	3757.88
1002.916	3802.88
1003.134	3742.88
1003.352	3736.88
1003.57	3709.88
1003.788	3707.88
1004.006	3677.88
1004.224	3663.88
1004.442	3669.88
1004.66	3652.88
1004.878	3603.88
1005.095	3586.88
1005.313	3591.88
1005.531	3548.88
1005.748	3526.88
1005.966	3623.88
1006.184	3536.88
1006.401	3505.88
1006.618	3452.88
1006.836	3458.88
1007.053	3455.88
1007.271	3397.88
1007.488	3441.88
1007.705	3411.88
1007.922	3404.88
1008.139	3372.88
1008.357	3449.88
1008.574	3383.88
1008.791	3388.88
1009.008	3414.88
1009.225	3392.88
1009.441	3489.88
1009.658	3451.88
1009.875	3473.88
1010.092	3404.88
1010.309	3440.88
1010.525	3431.88
1010.742	3329.88
1010.958	3293.88
1011.175	3290.88
1011.391	3250.88
1011.608	3245.88
1011.824	3192.88
1012.041	3199.88
1012.257	3192.88
1012.473	3140.88
1012.689	3117.88
1012.906	3092.88
1013.122	3095.88
1013.338	3053.88
1013.554	3079.88
1013.77	3033.88
1013.986	3045.88
1014.202	3107.88
1014.418	3175.88
1014.634	3116.88
1014.849	3213.88
1015.065	3280.88
1015.281	3212.88
1015.496	3218.88
1015.712	3142.88
1015.928	3120.88
1016.143	3062.88
1016.359	3025.88
1016.574	2997.88
1016.79	2950.88
1017.005	2889.88
1017.22	2800.88
1017.435	2783.88
1017.651	2734.88
1017.866	2728.88
1018.081	2685.88
1018.296	2606.88
1018.511	2576.88
1018.726	2596.88
1018.941	2521.88
1019.156	2521.88
1019.371	2495.88
1019.586	2491.88
1019.801	2497.88
1020.015	2468.88
1020.23	2467.88
1020.445	2425.88
1020.659	2412.88
1020.874	2403.88
1021.088	2344.88
1021.303	2337.88
1021.517	2314.88
1021.732	2251.88
1021.946	2215.88
1022.16	2236.88
1022.375	2189.88
1022.589	2177.88
1022.803	2159.88
1023.017	2114.88
1023.231	2053.88
1023.445	2056.88
1023.659	1990.88
1023.873	1958.88
1024.087	1920.88
1024.301	1880.88
1024.515	1862.88
1024.729	1820.88
1024.942	1777.88
1025.156	1793.88
1025.37	1729.88
1025.583	1738.88
1025.797	1652.88
1026.01	1678.88
1026.224	1611.88
1026.437	1579.88
1026.651	1539.88
1026.864	1507.88
1027.077	1470.88
1027.291	1418.88
1027.504	1421.88
1027.717	1306.88
1027.93	1326.88
1028.143	1271.88
1028.356	1242.88
1028.569	1160.88
1028.782	1102.88
1028.995	-1.12
1029.208	-1.12
1029.421	-1.12
1029.634	-1.12
