Data from QEP037381__654__16-18-09-783.txt Node

Date: Mon Mar 14 16:18:09 EDT 2022
User: dcclab
Spectrometer: QEP03738
Trigger mode: 4
Integration Time (sec): 2.500000E0
Scans to average: 1
Electric dark correction enabled: true
Nonlinearity correction enabled: false
Boxcar width: 0
XAxis mode: Wavelengths
Number of Pixels in Spectrum: 1044
>>>>>Begin Spectral Data<<<<<
783.959	12.5
784.218	2.5
784.476	-3.5
784.734	-1.5
784.992	259.5
785.251	243.5
785.509	247.5
785.767	235.5
786.025	249.5
786.283	248.5
786.541	257.5
786.798	248.5
787.056	244.5
787.314	227.5
787.572	245.5
787.83	246.5
788.087	248.5
788.345	241.5
788.602	243.5
788.86	237.5
789.117	256.5
789.375	240.5
789.632	246.5
789.89	245.5
790.147	272.5
790.404	263.5
790.661	269.5
790.919	275.5
791.176	263.5
791.433	267.5
791.69	288.5
791.947	280.5
792.204	275.5
792.461	306.5
792.718	307.5
792.974	297.5
793.231	309.5
793.488	340.5
793.745	337.5
794.001	362.5
794.258	377.5
794.514	376.5
794.771	417.5
795.027	404.5
795.284	433.5
795.54	457.5
795.797	486.5
796.053	526.5
796.309	571.5
796.565	600.5
796.822	676.5
797.078	744.5
797.334	862.5
797.59	1033.5
797.846	1284.5
798.102	1667.5
798.358	2217.5
798.614	3137.5
798.869	4571.5
799.125	6724.5
799.381	9831.5
799.637	14047.5
799.892	19031.5
800.148	24556.5
800.403	29872.5
800.659	34583.5
800.914	38167.5
801.17	40705.5
801.425	42266.5
801.68	43656.5
801.936	44601.5
802.191	45845.5
802.446	46545.5
802.701	47607.5
802.957	48659.5
803.212	49656.5
803.467	50694.5
803.722	51779.5
803.977	52814.5
804.232	53796.5
804.486	54889.5
804.741	56072.5
804.996	57134.5
805.251	58188.5
805.505	59316.5
805.76	60228.5
806.015	61048.5
806.269	61935.5
806.524	62704.5
806.778	63302.5
807.033	63863.5
807.287	64668.5
807.541	65638.5
807.796	66639.5
808.05	67266.5
808.304	68098.5
808.558	68535.5
808.812	69199.5
809.066	69683.5
809.32	70188.5
809.574	70789.5
809.828	71082.5
810.082	71705.5
810.336	72225.5
810.59	73112.5
810.844	73856.5
811.097	75039.5
811.351	76024.5
811.605	77166.5
811.858	78426.5
812.112	79920.5
812.365	81234.5
812.619	82463.5
812.872	83671.5
813.126	84756.5
813.379	86052.5
813.632	87313.5
813.885	88468.5
814.139	89846.5
814.392	91336.5
814.645	92668.5
814.898	94614.5
815.151	96299.5
815.404	97821.5
815.657	99665.5
815.91	101092.5
816.163	102473.5
816.416	103407.5
816.668	103990.5
816.921	104702.5
817.174	105335.5
817.426	105347.5
817.679	105368.5
817.931	105328.5
818.184	105557.5
818.436	105606.5
818.689	105595.5
818.941	105924.5
819.194	106464.5
819.446	106800.5
819.698	107277.5
819.95	107801.5
820.202	108087.5
820.455	108502.5
820.707	108769.5
820.959	109006.5
821.211	109017.5
821.462	108747.5
821.714	108773.5
821.966	108504.5
822.218	107961.5
822.47	107531.5
822.722	107088.5
822.973	106534.5
823.225	106562.5
823.476	106327.5
823.728	106048.5
823.979	106500.5
824.231	106755.5
824.482	106664.5
824.734	106587.5
824.985	106651.5
825.236	106587.5
825.487	106176.5
825.739	106084.5
825.99	105847.5
826.241	105653.5
826.492	104848.5
826.743	104465.5
826.994	104115.5
827.245	103582.5
827.496	103509.5
827.747	103286.5
827.997	103372.5
828.248	103474.5
828.499	103672.5
828.75	103717.5
829	103648.5
829.251	103606.5
829.501	103602.5
829.752	103201.5
830.002	102633.5
830.253	102043.5
830.503	101490.5
830.753	100788.5
831.004	100175.5
831.254	99835.5
831.504	99526.5
831.754	99594.5
832.004	99378.5
832.254	99750.5
832.504	99786.5
832.754	99723.5
833.004	99715.5
833.254	99347.5
833.504	99235.5
833.754	99022.5
834.003	98652.5
834.253	98619.5
834.503	97800.5
834.752	97150.5
835.002	96234.5
835.252	96019.5
835.501	95976.5
835.75	95674.5
836	95632.5
836.249	95302.5
836.499	95429.5
836.748	95547.5
836.997	95414.5
837.246	95528.5
837.495	95766.5
837.744	96432.5
837.993	96810.5
838.242	96783.5
838.491	96789.5
838.74	95434.5
838.989	94580.5
839.238	93594.5
839.487	92995.5
839.736	92691.5
839.984	92330.5
840.233	92009.5
840.482	91448.5
840.73	91172.5
840.979	90696.5
841.227	90456.5
841.476	90225.5
841.724	90066.5
841.972	89902.5
842.221	89574.5
842.469	89240.5
842.717	88908.5
842.965	88502.5
843.213	88614.5
843.461	88058.5
843.71	87644.5
843.958	87439.5
844.205	87129.5
844.453	86991.5
844.701	86808.5
844.949	86856.5
845.197	86994.5
845.445	86869.5
845.692	87232.5
845.94	87270.5
846.188	87082.5
846.435	86899.5
846.683	86694.5
846.93	86391.5
847.178	85761.5
847.425	85074.5
847.672	84562.5
847.92	84027.5
848.167	83049.5
848.414	82310.5
848.661	81814.5
848.908	81354.5
849.155	81200.5
849.402	81213.5
849.649	81312.5
849.896	81413.5
850.143	82007.5
850.39	82451.5
850.637	82504.5
850.884	82403.5
851.131	82074.5
851.377	82013.5
851.624	81746.5
851.87	81397.5
852.117	80676.5
852.364	80338.5
852.61	80350.5
852.856	79975.5
853.103	79490.5
853.349	79311.5
853.595	79240.5
853.842	78482.5
854.088	78380.5
854.334	78640.5
854.58	78369.5
854.826	77827.5
855.072	77324.5
855.318	76798.5
855.564	76249.5
855.81	75468.5
856.056	75065.5
856.302	74189.5
856.548	73953.5
856.793	73434.5
857.039	73144.5
857.285	72857.5
857.53	72871.5
857.776	72925.5
858.021	73050.5
858.267	73476.5
858.512	73574.5
858.758	73597.5
859.003	73756.5
859.248	73680.5
859.493	73555.5
859.739	73405.5
859.984	73135.5
860.229	72830.5
860.474	72345.5
860.719	71974.5
860.964	71550.5
861.209	71032.5
861.454	70623.5
861.699	70129.5
861.943	69814.5
862.188	69540.5
862.433	69377.5
862.678	69064.5
862.922	68780.5
863.167	68928.5
863.411	68559.5
863.656	68549.5
863.9	68337.5
864.145	68240.5
864.389	67977.5
864.634	67418.5
864.878	67220.5
865.122	67088.5
865.366	66723.5
865.61	66720.5
865.855	66374.5
866.099	66314.5
866.343	66285.5
866.587	66053.5
866.831	66073.5
867.074	66059.5
867.318	66151.5
867.562	65916.5
867.806	66044.5
868.05	65848.5
868.293	65791.5
868.537	65324.5
868.78	65332.5
869.024	64786.5
869.267	64323.5
869.511	63860.5
869.754	63456.5
869.998	62843.5
870.241	62317.5
870.484	61945.5
870.728	61677.5
870.971	61124.5
871.214	61105.5
871.457	60520.5
871.7	60876.5
871.943	60680.5
872.186	60760.5
872.429	61048.5
872.672	60732.5
872.915	60802.5
873.158	60783.5
873.4	60385.5
873.643	60372.5
873.886	60130.5
874.128	60005.5
874.371	59974.5
874.613	59906.5
874.856	59422.5
875.098	59283.5
875.341	59135.5
875.583	59160.5
875.825	58840.5
876.068	58500.5
876.31	58022.5
876.552	57679.5
876.794	57240.5
877.036	56698.5
877.278	56201.5
877.52	55951.5
877.762	55733.5
878.004	55436.5
878.246	55509.5
878.488	55552.5
878.73	55272.5
878.972	55221.5
879.213	55204.5
879.455	55128.5
879.697	55063.5
879.938	55022.5
880.18	54746.5
880.421	54426.5
880.663	54312.5
880.904	54366.5
881.145	54478.5
881.387	54426.5
881.628	54546.5
881.869	54256.5
882.11	54078.5
882.352	53958.5
882.593	53634.5
882.834	53670.5
883.075	53489.5
883.316	53271.5
883.557	53075.5
883.797	52830.5
884.038	52332.5
884.279	51869.5
884.52	51297.5
884.761	50773.5
885.001	50484.5
885.242	50097.5
885.482	49677.5
885.723	49459.5
885.963	49208.5
886.204	48989.5
886.444	48627.5
886.685	48738.5
886.925	48452.5
887.165	48338.5
887.405	47830.5
887.646	47928.5
887.886	47671.5
888.126	47634.5
888.366	47937.5
888.606	47676.5
888.846	47890.5
889.086	48049.5
889.326	47885.5
889.565	47903.5
889.805	47761.5
890.045	47683.5
890.285	47473.5
890.524	47367.5
890.764	47096.5
891.003	46744.5
891.243	46411.5
891.482	46080.5
891.722	45735.5
891.961	45417.5
892.201	45029.5
892.44	44587.5
892.679	44454.5
892.918	44458.5
893.158	44360.5
893.397	44326.5
893.636	44097.5
893.875	43916.5
894.114	43800.5
894.353	43624.5
894.592	43423.5
894.831	43227.5
895.069	42842.5
895.308	42587.5
895.547	42513.5
895.786	42234.5
896.024	42053.5
896.263	42031.5
896.501	41868.5
896.74	41931.5
896.978	41788.5
897.217	41856.5
897.455	41691.5
897.694	41684.5
897.932	41466.5
898.17	41368.5
898.408	41188.5
898.646	41034.5
898.885	40825.5
899.123	40446.5
899.361	40348.5
899.599	39956.5
899.837	39903.5
900.075	39600.5
900.312	39186.5
900.55	39029.5
900.788	38577.5
901.026	38402.5
901.263	37989.5
901.501	37672.5
901.739	37521.5
901.976	37389.5
902.214	37051.5
902.451	36845.5
902.689	36946.5
902.926	36811.5
903.163	36626.5
903.401	36655.5
903.638	36645.5
903.875	36822.5
904.112	36659.5
904.349	36706.5
904.586	36487.5
904.823	36413.5
905.06	36290.5
905.297	35850.5
905.534	35681.5
905.771	35471.5
906.008	35228.5
906.245	34974.5
906.481	34820.5
906.718	34764.5
906.955	34461.5
907.191	34324.5
907.428	34065.5
907.664	34034.5
907.901	34106.5
908.137	33781.5
908.374	33766.5
908.61	33586.5
908.846	33463.5
909.083	33261.5
909.319	33142.5
909.555	32849.5
909.791	32590.5
910.027	32321.5
910.263	32071.5
910.499	31830.5
910.735	31665.5
910.971	31381.5
911.207	31316.5
911.443	30928.5
911.678	30954.5
911.914	30764.5
912.15	30677.5
912.385	30560.5
912.621	30484.5
912.857	30575.5
913.092	30647.5
913.328	30474.5
913.563	30465.5
913.798	30444.5
914.034	30338.5
914.269	30336.5
914.504	30238.5
914.739	30104.5
914.975	29831.5
915.21	29508.5
915.445	29580.5
915.68	29195.5
915.915	28834.5
916.15	28631.5
916.384	28355.5
916.619	27900.5
916.854	27763.5
917.089	27691.5
917.324	27442.5
917.558	27285.5
917.793	27083.5
918.028	26895.5
918.262	26791.5
918.497	26805.5
918.731	26764.5
918.965	26756.5
919.2	26750.5
919.434	26667.5
919.668	26711.5
919.903	26621.5
920.137	26492.5
920.371	26283.5
920.605	26094.5
920.839	25922.5
921.073	25671.5
921.307	25584.5
921.541	25327.5
921.775	25230.5
922.009	25150.5
922.243	25042.5
922.476	24866.5
922.71	25068.5
922.944	24881.5
923.177	24797.5
923.411	24736.5
923.644	24749.5
923.878	24657.5
924.111	24540.5
924.345	24428.5
924.578	24365.5
924.811	24202.5
925.045	24083.5
925.278	23833.5
925.511	23698.5
925.744	23498.5
925.977	23246.5
926.21	23195.5
926.443	22897.5
926.676	22776.5
926.909	22560.5
927.142	22519.5
927.375	22333.5
927.608	22076.5
927.841	22035.5
928.073	21997.5
928.306	21814.5
928.539	21813.5
928.771	21800.5
929.004	21751.5
929.236	21798.5
929.469	21701.5
929.701	21622.5
929.933	21698.5
930.166	21633.5
930.398	21679.5
930.63	21642.5
930.862	21485.5
931.094	21352.5
931.327	21296.5
931.559	21090.5
931.791	20934.5
932.023	20935.5
932.255	20705.5
932.486	20491.5
932.718	20303.5
932.95	20095.5
933.182	20119.5
933.413	20044.5
933.645	19842.5
933.877	19800.5
934.108	19722.5
934.34	19614.5
934.571	19501.5
934.803	19459.5
935.034	19343.5
935.265	19200.5
935.497	19149.5
935.728	19140.5
935.959	18996.5
936.19	18936.5
936.422	18775.5
936.653	18720.5
936.884	18537.5
937.115	18538.5
937.346	18400.5
937.577	18196.5
937.807	18108.5
938.038	18057.5
938.269	18004.5
938.5	17869.5
938.73	17868.5
938.961	17892.5
939.192	17789.5
939.422	17735.5
939.653	17807.5
939.883	17705.5
940.114	17654.5
940.344	17535.5
940.574	17481.5
940.805	17364.5
941.035	17423.5
941.265	17039.5
941.495	17062.5
941.726	16826.5
941.956	16726.5
942.186	16667.5
942.416	16513.5
942.646	16423.5
942.876	16189.5
943.105	16094.5
943.335	15884.5
943.565	15828.5
943.795	15660.5
944.024	15503.5
944.254	15499.5
944.484	15276.5
944.713	15278.5
944.943	15088.5
945.172	15117.5
945.402	15026.5
945.631	15066.5
945.86	14971.5
946.09	14885.5
946.319	14849.5
946.548	14841.5
946.777	14715.5
947.006	14601.5
947.235	14471.5
947.465	14546.5
947.694	14356.5
947.922	14309.5
948.151	14182.5
948.38	14053.5
948.609	14047.5
948.838	13763.5
949.067	13717.5
949.295	13673.5
949.524	13558.5
949.752	13405.5
949.981	13387.5
950.21	13276.5
950.438	13137.5
950.666	13094.5
950.895	13007.5
951.123	12863.5
951.351	12738.5
951.58	12687.5
951.808	12607.5
952.036	12531.5
952.264	12588.5
952.492	12450.5
952.72	12313.5
952.948	12249.5
953.176	12210.5
953.404	12116.5
953.632	11906.5
953.86	11836.5
954.088	11796.5
954.315	11618.5
954.543	11527.5
954.771	11512.5
954.998	11476.5
955.226	11436.5
955.453	11369.5
955.681	11332.5
955.908	11284.5
956.135	11254.5
956.363	11202.5
956.59	11154.5
956.817	11215.5
957.045	11127.5
957.272	11025.5
957.499	11059.5
957.726	10980.5
957.953	10952.5
958.18	10789.5
958.407	10787.5
958.634	10759.5
958.861	10663.5
959.087	10604.5
959.314	10508.5
959.541	10435.5
959.767	10377.5
959.994	10185.5
960.221	10138.5
960.447	10104.5
960.674	10037.5
960.9	9876.5
961.127	9775.5
961.353	9797.5
961.579	9779.5
961.806	9591.5
962.032	9650.5
962.258	9529.5
962.484	9524.5
962.71	9510.5
962.936	9471.5
963.162	9416.5
963.388	9447.5
963.614	9453.5
963.84	9363.5
964.066	9267.5
964.292	9302.5
964.518	9203.5
964.743	9191.5
964.969	9155.5
965.195	9060.5
965.42	9039.5
965.646	9024.5
965.871	8939.5
966.097	8876.5
966.322	8871.5
966.547	8870.5
966.773	8789.5
966.998	8695.5
967.223	8704.5
967.448	8677.5
967.674	8607.5
967.899	8557.5
968.124	8483.5
968.349	8421.5
968.574	8359.5
968.799	8343.5
969.024	8210.5
969.248	8222.5
969.473	8213.5
969.698	8161.5
969.923	8087.5
970.147	8029.5
970.372	7977.5
970.596	7940.5
970.821	7957.5
971.046	7839.5
971.27	7786.5
971.494	7756.5
971.719	7664.5
971.943	7639.5
972.167	7543.5
972.392	7545.5
972.616	7520.5
972.84	7440.5
973.064	7420.5
973.288	7385.5
973.512	7379.5
973.736	7265.5
973.96	7289.5
974.184	7320.5
974.408	7213.5
974.631	7263.5
974.855	7247.5
975.079	7167.5
975.303	7108.5
975.526	7125.5
975.75	7026.5
975.973	7020.5
976.197	7031.5
976.42	6932.5
976.644	6916.5
976.867	6944.5
977.09	6798.5
977.313	6727.5
977.537	6764.5
977.76	6694.5
977.983	6648.5
978.206	6605.5
978.429	6567.5
978.652	6518.5
978.875	6486.5
979.098	6375.5
979.321	6387.5
979.544	6325.5
979.767	6309.5
979.989	6239.5
980.212	6194.5
980.435	6215.5
980.657	6162.5
980.88	6168.5
981.102	6070.5
981.325	6030.5
981.547	6023.5
981.77	6003.5
981.992	6004.5
982.214	5988.5
982.437	5878.5
982.659	5850.5
982.881	5919.5
983.103	5837.5
983.325	5844.5
983.547	5760.5
983.769	5802.5
983.991	5737.5
984.213	5692.5
984.435	5731.5
984.657	5657.5
984.879	5652.5
985.1	5538.5
985.322	5567.5
985.544	5523.5
985.765	5496.5
985.987	5481.5
986.208	5481.5
986.43	5410.5
986.651	5435.5
986.873	5343.5
987.094	5350.5
987.315	5310.5
987.536	5239.5
987.758	5272.5
987.979	5194.5
988.2	5183.5
988.421	5168.5
988.642	5080.5
988.863	5100.5
989.084	5048.5
989.305	5052.5
989.526	5000.5
989.747	4981.5
989.967	4921.5
990.188	4891.5
990.409	4861.5
990.629	4839.5
990.85	4816.5
991.071	4768.5
991.291	4763.5
991.512	4657.5
991.732	4685.5
991.952	4698.5
992.173	4662.5
992.393	4647.5
992.613	4607.5
992.834	4638.5
993.054	4607.5
993.274	4588.5
993.494	4554.5
993.714	4573.5
993.934	4548.5
994.154	4582.5
994.374	4539.5
994.594	4448.5
994.813	4431.5
995.033	4478.5
995.253	4416.5
995.473	4372.5
995.692	4350.5
995.912	4348.5
996.131	4315.5
996.351	4236.5
996.57	4243.5
996.79	4249.5
997.009	4168.5
997.228	4116.5
997.448	4134.5
997.667	4055.5
997.886	3971.5
998.105	4015.5
998.325	3968.5
998.544	3950.5
998.763	3857.5
998.982	3923.5
999.201	3864.5
999.419	3859.5
999.638	3838.5
999.857	3804.5
1000.076	3794.5
1000.295	3763.5
1000.513	3742.5
1000.732	3742.5
1000.95	3676.5
1001.169	3747.5
1001.388	3706.5
1001.606	3621.5
1001.824	3643.5
1002.043	3632.5
1002.261	3625.5
1002.479	3639.5
1002.698	3578.5
1002.916	3604.5
1003.134	3616.5
1003.352	3552.5
1003.57	3549.5
1003.788	3565.5
1004.006	3543.5
1004.224	3513.5
1004.442	3528.5
1004.66	3451.5
1004.878	3477.5
1005.095	3429.5
1005.313	3438.5
1005.531	3409.5
1005.748	3403.5
1005.966	3464.5
1006.184	3368.5
1006.401	3366.5
1006.618	3348.5
1006.836	3296.5
1007.053	3322.5
1007.271	3293.5
1007.488	3308.5
1007.705	3281.5
1007.922	3271.5
1008.139	3233.5
1008.357	3274.5
1008.574	3292.5
1008.791	3276.5
1009.008	3286.5
1009.225	3301.5
1009.441	3335.5
1009.658	3318.5
1009.875	3360.5
1010.092	3312.5
1010.309	3306.5
1010.525	3245.5
1010.742	3209.5
1010.958	3182.5
1011.175	3198.5
1011.391	3086.5
1011.608	3130.5
1011.824	3099.5
1012.041	3071.5
1012.257	3031.5
1012.473	3040.5
1012.689	2994.5
1012.906	2958.5
1013.122	2936.5
1013.338	2963.5
1013.554	2978.5
1013.77	2930.5
1013.986	2952.5
1014.202	3009.5
1014.418	3039.5
1014.634	3081.5
1014.849	3061.5
1015.065	3096.5
1015.281	3121.5
1015.496	3093.5
1015.712	3078.5
1015.928	2979.5
1016.143	2981.5
1016.359	2958.5
1016.574	2887.5
1016.79	2815.5
1017.005	2800.5
1017.22	2730.5
1017.435	2676.5
1017.651	2664.5
1017.866	2594.5
1018.081	2549.5
1018.296	2510.5
1018.511	2498.5
1018.726	2474.5
1018.941	2451.5
1019.156	2456.5
1019.371	2466.5
1019.586	2417.5
1019.801	2401.5
1020.015	2347.5
1020.23	2388.5
1020.445	2319.5
1020.659	2291.5
1020.874	2306.5
1021.088	2300.5
1021.303	2214.5
1021.517	2220.5
1021.732	2169.5
1021.946	2157.5
1022.16	2155.5
1022.375	2115.5
1022.589	2095.5
1022.803	2087.5
1023.017	1997.5
1023.231	1967.5
1023.445	1962.5
1023.659	1894.5
1023.873	1875.5
1024.087	1858.5
1024.301	1805.5
1024.515	1772.5
1024.729	1763.5
1024.942	1702.5
1025.156	1736.5
1025.37	1704.5
1025.583	1666.5
1025.797	1591.5
1026.01	1605.5
1026.224	1547.5
1026.437	1522.5
1026.651	1462.5
1026.864	1395.5
1027.077	1425.5
1027.291	1359.5
1027.504	1343.5
1027.717	1289.5
1027.93	1287.5
1028.143	1240.5
1028.356	1171.5
1028.569	1147.5
1028.782	1054.5
1028.995	-2.5
1029.208	-2.5
1029.421	-0.5
1029.634	-4.5
