Data from QEP037381__650__16-17-59-782.txt Node

Date: Mon Mar 14 16:17:59 EDT 2022
User: dcclab
Spectrometer: QEP03738
Trigger mode: 4
Integration Time (sec): 2.500000E0
Scans to average: 1
Electric dark correction enabled: true
Nonlinearity correction enabled: false
Boxcar width: 0
XAxis mode: Wavelengths
Number of Pixels in Spectrum: 1044
>>>>>Begin Spectral Data<<<<<
783.959	14.5
784.218	-0.5
784.476	-2.5
784.734	-1.5
784.992	258.5
785.251	249.5
785.509	240.5
785.767	239.5
786.025	235.5
786.283	229.5
786.541	239.5
786.798	251.5
787.056	240.5
787.314	221.5
787.572	243.5
787.83	245.5
788.087	248.5
788.345	247.5
788.602	236.5
788.86	240.5
789.117	262.5
789.375	242.5
789.632	245.5
789.89	244.5
790.147	261.5
790.404	262.5
790.661	259.5
790.919	276.5
791.176	269.5
791.433	273.5
791.69	284.5
791.947	301.5
792.204	285.5
792.461	304.5
792.718	303.5
792.974	309.5
793.231	319.5
793.488	345.5
793.745	335.5
794.001	349.5
794.258	374.5
794.514	371.5
794.771	395.5
795.027	412.5
795.284	434.5
795.54	457.5
795.797	480.5
796.053	511.5
796.309	556.5
796.565	593.5
796.822	675.5
797.078	758.5
797.334	880.5
797.59	1018.5
797.846	1291.5
798.102	1663.5
798.358	2185.5
798.614	3102.5
798.869	4482.5
799.125	6640.5
799.381	9755.5
799.637	13942.5
799.892	18942.5
800.148	24596.5
800.403	30093.5
800.659	34827.5
800.914	38430.5
801.17	40906.5
801.425	42517.5
801.68	43613.5
801.936	44808.5
802.191	45886.5
802.446	46924.5
802.701	47983.5
802.957	48808.5
803.212	49958.5
803.467	50885.5
803.722	51912.5
803.977	52831.5
804.232	54008.5
804.486	55299.5
804.741	56205.5
804.996	57474.5
805.251	58493.5
805.505	59436.5
805.76	60641.5
806.015	61413.5
806.269	62324.5
806.524	63406.5
806.778	63695.5
807.033	64097.5
807.287	64965.5
807.541	65830.5
807.796	66958.5
808.05	67606.5
808.304	68382.5
808.558	68873.5
808.812	69418.5
809.066	69919.5
809.32	70318.5
809.574	70839.5
809.828	71362.5
810.082	71849.5
810.336	72593.5
810.59	73387.5
810.844	74237.5
811.097	75261.5
811.351	76362.5
811.605	77562.5
811.858	78705.5
812.112	80011.5
812.365	81438.5
812.619	82633.5
812.872	83885.5
813.126	85198.5
813.379	86250.5
813.632	87792.5
813.885	88689.5
814.139	90076.5
814.392	91363.5
814.645	93059.5
814.898	94939.5
815.151	96517.5
815.404	98219.5
815.657	100113.5
815.91	101412.5
816.163	102805.5
816.416	103821.5
816.668	104350.5
816.921	105305.5
817.174	105521.5
817.426	105797.5
817.679	105719.5
817.931	105740.5
818.184	105907.5
818.436	105906.5
818.689	106012.5
818.941	106152.5
819.194	106750.5
819.446	107035.5
819.698	107681.5
819.95	108155.5
820.202	108525.5
820.455	108898.5
820.707	109057.5
820.959	109284.5
821.211	109143.5
821.462	109326.5
821.714	109079.5
821.966	108533.5
822.218	108159.5
822.47	107901.5
822.722	107161.5
822.973	107084.5
823.225	106684.5
823.476	106595.5
823.728	106642.5
823.979	106469.5
824.231	106962.5
824.482	106784.5
824.734	106990.5
824.985	106922.5
825.236	106907.5
825.487	106575.5
825.739	106344.5
825.99	106037.5
826.241	105814.5
826.492	105315.5
826.743	104771.5
826.994	104470.5
827.245	103992.5
827.496	103834.5
827.747	103742.5
827.997	103554.5
828.248	103992.5
828.499	103991.5
828.75	103989.5
829	104143.5
829.251	103971.5
829.501	103808.5
829.752	103274.5
830.002	103070.5
830.253	102297.5
830.503	101830.5
830.753	101088.5
831.004	100615.5
831.254	99986.5
831.504	99876.5
831.754	99782.5
832.004	99607.5
832.254	99574.5
832.504	99790.5
832.754	99993.5
833.004	99976.5
833.254	99677.5
833.504	99210.5
833.754	99315.5
834.003	98753.5
834.253	98615.5
834.503	98028.5
834.752	97360.5
835.002	96986.5
835.252	96344.5
835.501	95854.5
835.75	95945.5
836	95644.5
836.249	95580.5
836.499	95310.5
836.748	95672.5
836.997	95526.5
837.246	95612.5
837.495	95940.5
837.744	96208.5
837.993	96773.5
838.242	96977.5
838.491	96715.5
838.74	95848.5
838.989	94665.5
839.238	93866.5
839.487	93051.5
839.736	93025.5
839.984	92551.5
840.233	92095.5
840.482	91321.5
840.73	91519.5
840.979	90964.5
841.227	90623.5
841.476	90335.5
841.724	90117.5
841.972	89867.5
842.221	89671.5
842.469	89318.5
842.717	88894.5
842.965	88677.5
843.213	88546.5
843.461	88277.5
843.71	87845.5
843.958	87479.5
844.205	87095.5
844.453	87237.5
844.701	87015.5
844.949	86922.5
845.197	86792.5
845.445	86982.5
845.692	87069.5
845.94	87190.5
846.188	86958.5
846.435	87111.5
846.683	86939.5
846.93	86319.5
847.178	86043.5
847.425	85321.5
847.672	84655.5
847.92	83966.5
848.167	83256.5
848.414	82756.5
848.661	81858.5
848.908	81492.5
849.155	81486.5
849.402	81226.5
849.649	81432.5
849.896	81639.5
850.143	82113.5
850.39	82496.5
850.637	82541.5
850.884	82375.5
851.131	82204.5
851.377	82006.5
851.624	81778.5
851.87	81470.5
852.117	80947.5
852.364	80561.5
852.61	80429.5
852.856	80213.5
853.103	79783.5
853.349	79270.5
853.595	79050.5
853.842	78687.5
854.088	78347.5
854.334	78781.5
854.58	78687.5
854.826	77836.5
855.072	77505.5
855.318	76840.5
855.564	76218.5
855.81	75572.5
856.056	75062.5
856.302	74392.5
856.548	73982.5
856.793	73436.5
857.039	73272.5
857.285	72973.5
857.53	72948.5
857.776	72979.5
858.021	73327.5
858.267	73586.5
858.512	73573.5
858.758	73571.5
859.003	73737.5
859.248	73651.5
859.493	73741.5
859.739	73498.5
859.984	73260.5
860.229	72733.5
860.474	72358.5
860.719	72085.5
860.964	71425.5
861.209	71203.5
861.454	70669.5
861.699	69981.5
861.943	69983.5
862.188	69681.5
862.433	69457.5
862.678	69117.5
862.922	69105.5
863.167	68873.5
863.411	68640.5
863.656	68577.5
863.9	68398.5
864.145	68198.5
864.389	68128.5
864.634	67545.5
864.878	67352.5
865.122	66883.5
865.366	66915.5
865.61	66652.5
865.855	66569.5
866.099	66508.5
866.343	66366.5
866.587	66024.5
866.831	66110.5
867.074	66184.5
867.318	66183.5
867.562	65980.5
867.806	65923.5
868.05	65882.5
868.293	65679.5
868.537	65371.5
868.78	65229.5
869.024	65100.5
869.267	64315.5
869.511	63934.5
869.754	63437.5
869.998	62758.5
870.241	62361.5
870.484	61926.5
870.728	61613.5
870.971	61257.5
871.214	60988.5
871.457	60823.5
871.7	60668.5
871.943	60788.5
872.186	60876.5
872.429	60978.5
872.672	60976.5
872.915	60763.5
873.158	60633.5
873.4	60469.5
873.643	60437.5
873.886	60179.5
874.128	60024.5
874.371	60065.5
874.613	59862.5
874.856	59579.5
875.098	59320.5
875.341	59102.5
875.583	58997.5
875.825	58837.5
876.068	58601.5
876.31	58082.5
876.552	57615.5
876.794	57137.5
877.036	56678.5
877.278	56204.5
877.52	56021.5
877.762	55824.5
878.004	55747.5
878.246	55317.5
878.488	55527.5
878.73	55340.5
878.972	55465.5
879.213	55449.5
879.455	55171.5
879.697	55114.5
879.938	54872.5
880.18	54758.5
880.421	54635.5
880.663	54449.5
880.904	54434.5
881.145	54418.5
881.387	54616.5
881.628	54643.5
881.869	54533.5
882.11	54283.5
882.352	53894.5
882.593	53844.5
882.834	53519.5
883.075	53543.5
883.316	53265.5
883.557	53096.5
883.797	52964.5
884.038	52488.5
884.279	51964.5
884.52	51421.5
884.761	50990.5
885.001	50413.5
885.242	50073.5
885.482	49873.5
885.723	49577.5
885.963	49245.5
886.204	48955.5
886.444	48813.5
886.685	48715.5
886.925	48388.5
887.165	48477.5
887.405	48032.5
887.646	48013.5
887.886	47830.5
888.126	47831.5
888.366	47712.5
888.606	47969.5
888.846	47883.5
889.086	48148.5
889.326	48060.5
889.565	47949.5
889.805	47912.5
890.045	47738.5
890.285	47500.5
890.524	47497.5
890.764	47218.5
891.003	46980.5
891.243	46381.5
891.482	46081.5
891.722	45637.5
891.961	45323.5
892.201	45115.5
892.44	44895.5
892.679	44863.5
892.918	44394.5
893.158	44371.5
893.397	44292.5
893.636	44241.5
893.875	43957.5
894.114	43821.5
894.353	43626.5
894.592	43437.5
894.831	43217.5
895.069	42857.5
895.308	42698.5
895.547	42422.5
895.786	42350.5
896.024	42060.5
896.263	41913.5
896.501	41778.5
896.74	42026.5
896.978	41910.5
897.217	41898.5
897.455	41658.5
897.694	41639.5
897.932	41540.5
898.17	41343.5
898.408	41191.5
898.646	41124.5
898.885	40840.5
899.123	40611.5
899.361	40302.5
899.599	40075.5
899.837	39812.5
900.075	39641.5
900.312	39364.5
900.55	39031.5
900.788	38709.5
901.026	38385.5
901.263	38049.5
901.501	37800.5
901.739	37585.5
901.976	37422.5
902.214	37216.5
902.451	36908.5
902.689	36984.5
902.926	36861.5
903.163	36920.5
903.401	37001.5
903.638	36781.5
903.875	36774.5
904.112	36673.5
904.349	36576.5
904.586	36624.5
904.823	36425.5
905.06	36297.5
905.297	36148.5
905.534	35670.5
905.771	35417.5
906.008	35170.5
906.245	35039.5
906.481	34787.5
906.718	34722.5
906.955	34498.5
907.191	34447.5
907.428	34205.5
907.664	34101.5
907.901	34014.5
908.137	33773.5
908.374	33801.5
908.61	33713.5
908.846	33393.5
909.083	33290.5
909.319	33150.5
909.555	32805.5
909.791	32682.5
910.027	32353.5
910.263	32042.5
910.499	31920.5
910.735	31499.5
910.971	31353.5
911.207	31253.5
911.443	31070.5
911.678	30910.5
911.914	30814.5
912.15	30742.5
912.385	30698.5
912.621	30655.5
912.857	30615.5
913.092	30471.5
913.328	30571.5
913.563	30533.5
913.798	30354.5
914.034	30478.5
914.269	30288.5
914.504	30260.5
914.739	30194.5
914.975	29958.5
915.21	29742.5
915.445	29536.5
915.68	29129.5
915.915	28977.5
916.15	28623.5
916.384	28256.5
916.619	28003.5
916.854	27668.5
917.089	27740.5
917.324	27432.5
917.558	27209.5
917.793	27143.5
918.028	26920.5
918.262	26908.5
918.497	26951.5
918.731	26911.5
918.965	26857.5
919.2	26696.5
919.434	26745.5
919.668	26655.5
919.903	26644.5
920.137	26539.5
920.371	26351.5
920.605	26179.5
920.839	25928.5
921.073	25781.5
921.307	25596.5
921.541	25321.5
921.775	25128.5
922.009	25127.5
922.243	25070.5
922.476	25051.5
922.71	25109.5
922.944	24862.5
923.177	24915.5
923.411	24922.5
923.644	24735.5
923.878	24692.5
924.111	24580.5
924.345	24503.5
924.578	24400.5
924.811	24154.5
925.045	24033.5
925.278	23957.5
925.511	23780.5
925.744	23475.5
925.977	23269.5
926.21	23206.5
926.443	23053.5
926.676	22798.5
926.909	22513.5
927.142	22608.5
927.375	22326.5
927.608	22124.5
927.841	21975.5
928.073	21918.5
928.306	21918.5
928.539	21885.5
928.771	21796.5
929.004	21773.5
929.236	21710.5
929.469	21678.5
929.701	21745.5
929.933	21828.5
930.166	21625.5
930.398	21742.5
930.63	21573.5
930.862	21532.5
931.094	21439.5
931.327	21359.5
931.559	21092.5
931.791	20963.5
932.023	20817.5
932.255	20677.5
932.486	20498.5
932.718	20399.5
932.95	20193.5
933.182	20144.5
933.413	19965.5
933.645	19941.5
933.877	19812.5
934.108	19716.5
934.34	19740.5
934.571	19628.5
934.803	19473.5
935.034	19402.5
935.265	19297.5
935.497	19282.5
935.728	19064.5
935.959	18951.5
936.19	18943.5
936.422	18756.5
936.653	18682.5
936.884	18563.5
937.115	18490.5
937.346	18366.5
937.577	18288.5
937.807	18160.5
938.038	18041.5
938.269	18021.5
938.5	17835.5
938.73	17991.5
938.961	17900.5
939.192	17837.5
939.422	17805.5
939.653	17746.5
939.883	17818.5
940.114	17728.5
940.344	17638.5
940.574	17499.5
940.805	17457.5
941.035	17302.5
941.265	17154.5
941.495	16975.5
941.726	16846.5
941.956	16769.5
942.186	16741.5
942.416	16447.5
942.646	16363.5
942.876	16173.5
943.105	16100.5
943.335	15947.5
943.565	15863.5
943.795	15661.5
944.024	15625.5
944.254	15394.5
944.484	15343.5
944.713	15159.5
944.943	15257.5
945.172	15090.5
945.402	15090.5
945.631	15000.5
945.86	14855.5
946.09	14978.5
946.319	14821.5
946.548	14777.5
946.777	14759.5
947.006	14682.5
947.235	14650.5
947.465	14554.5
947.694	14354.5
947.922	14270.5
948.151	14185.5
948.38	14073.5
948.609	13982.5
948.838	13817.5
949.067	13788.5
949.295	13647.5
949.524	13579.5
949.752	13423.5
949.981	13330.5
950.21	13279.5
950.438	13195.5
950.666	13097.5
950.895	12976.5
951.123	12840.5
951.351	12805.5
951.58	12752.5
951.808	12756.5
952.036	12662.5
952.264	12528.5
952.492	12441.5
952.72	12435.5
952.948	12375.5
953.176	12200.5
953.404	12078.5
953.632	11957.5
953.86	11882.5
954.088	11753.5
954.315	11724.5
954.543	11648.5
954.771	11538.5
954.998	11492.5
955.226	11442.5
955.453	11316.5
955.681	11270.5
955.908	11299.5
956.135	11258.5
956.363	11231.5
956.59	11179.5
956.817	11252.5
957.045	11089.5
957.272	11149.5
957.499	11104.5
957.726	11045.5
957.953	10927.5
958.18	10929.5
958.407	10761.5
958.634	10681.5
958.861	10659.5
959.087	10574.5
959.314	10453.5
959.541	10460.5
959.767	10364.5
959.994	10310.5
960.221	10239.5
960.447	10078.5
960.674	9994.5
960.9	9931.5
961.127	9886.5
961.353	9813.5
961.579	9699.5
961.806	9684.5
962.032	9649.5
962.258	9542.5
962.484	9536.5
962.71	9497.5
962.936	9438.5
963.162	9410.5
963.388	9343.5
963.614	9392.5
963.84	9377.5
964.066	9331.5
964.292	9311.5
964.518	9259.5
964.743	9181.5
964.969	9144.5
965.195	9049.5
965.42	9014.5
965.646	9034.5
965.871	9003.5
966.097	8872.5
966.322	8893.5
966.547	8865.5
966.773	8777.5
966.998	8727.5
967.223	8708.5
967.448	8646.5
967.674	8589.5
967.899	8600.5
968.124	8409.5
968.349	8395.5
968.574	8387.5
968.799	8351.5
969.024	8316.5
969.248	8250.5
969.473	8217.5
969.698	8142.5
969.923	8107.5
970.147	8056.5
970.372	7998.5
970.596	7956.5
970.821	7946.5
971.046	7849.5
971.27	7806.5
971.494	7801.5
971.719	7702.5
971.943	7587.5
972.167	7591.5
972.392	7601.5
972.616	7533.5
972.84	7477.5
973.064	7426.5
973.288	7425.5
973.512	7365.5
973.736	7324.5
973.96	7327.5
974.184	7240.5
974.408	7266.5
974.631	7203.5
974.855	7189.5
975.079	7199.5
975.303	7137.5
975.526	7092.5
975.75	7079.5
975.973	7051.5
976.197	7060.5
976.42	6943.5
976.644	6901.5
976.867	6867.5
977.09	6816.5
977.313	6770.5
977.537	6702.5
977.76	6685.5
977.983	6704.5
978.206	6569.5
978.429	6538.5
978.652	6508.5
978.875	6487.5
979.098	6444.5
979.321	6399.5
979.544	6342.5
979.767	6385.5
979.989	6280.5
980.212	6253.5
980.435	6203.5
980.657	6158.5
980.88	6180.5
981.102	6089.5
981.325	6076.5
981.547	6068.5
981.77	6001.5
981.992	6016.5
982.214	5970.5
982.437	5882.5
982.659	5916.5
982.881	5905.5
983.103	5864.5
983.325	5836.5
983.547	5804.5
983.769	5754.5
983.991	5742.5
984.213	5745.5
984.435	5716.5
984.657	5644.5
984.879	5654.5
985.1	5603.5
985.322	5596.5
985.544	5539.5
985.765	5537.5
985.987	5521.5
986.208	5503.5
986.43	5472.5
986.651	5398.5
986.873	5386.5
987.094	5363.5
987.315	5339.5
987.536	5285.5
987.758	5225.5
987.979	5152.5
988.2	5167.5
988.421	5121.5
988.642	5109.5
988.863	5077.5
989.084	5066.5
989.305	5064.5
989.526	5025.5
989.747	4956.5
989.967	4971.5
990.188	4868.5
990.409	4874.5
990.629	4783.5
990.85	4781.5
991.071	4724.5
991.291	4799.5
991.512	4725.5
991.732	4670.5
991.952	4637.5
992.173	4655.5
992.393	4651.5
992.613	4637.5
992.834	4624.5
993.054	4614.5
993.274	4598.5
993.494	4538.5
993.714	4598.5
993.934	4541.5
994.154	4544.5
994.374	4507.5
994.594	4501.5
994.813	4493.5
995.033	4419.5
995.253	4413.5
995.473	4414.5
995.692	4371.5
995.912	4318.5
996.131	4330.5
996.351	4295.5
996.57	4225.5
996.79	4202.5
997.009	4155.5
997.228	4144.5
997.448	4104.5
997.667	4110.5
997.886	4026.5
998.105	3978.5
998.325	3968.5
998.544	3933.5
998.763	3915.5
998.982	3927.5
999.201	3847.5
999.419	3818.5
999.638	3865.5
999.857	3798.5
1000.076	3812.5
1000.295	3738.5
1000.513	3748.5
1000.732	3808.5
1000.95	3690.5
1001.169	3753.5
1001.388	3674.5
1001.606	3674.5
1001.824	3704.5
1002.043	3631.5
1002.261	3628.5
1002.479	3613.5
1002.698	3608.5
1002.916	3629.5
1003.134	3564.5
1003.352	3527.5
1003.57	3549.5
1003.788	3555.5
1004.006	3516.5
1004.224	3527.5
1004.442	3542.5
1004.66	3483.5
1004.878	3494.5
1005.095	3427.5
1005.313	3431.5
1005.531	3397.5
1005.748	3404.5
1005.966	3462.5
1006.184	3365.5
1006.401	3390.5
1006.618	3334.5
1006.836	3312.5
1007.053	3337.5
1007.271	3309.5
1007.488	3291.5
1007.705	3299.5
1007.922	3273.5
1008.139	3225.5
1008.357	3273.5
1008.574	3277.5
1008.791	3265.5
1009.008	3298.5
1009.225	3281.5
1009.441	3343.5
1009.658	3335.5
1009.875	3319.5
1010.092	3303.5
1010.309	3317.5
1010.525	3238.5
1010.742	3215.5
1010.958	3203.5
1011.175	3157.5
1011.391	3173.5
1011.608	3155.5
1011.824	3106.5
1012.041	3066.5
1012.257	3044.5
1012.473	3009.5
1012.689	2991.5
1012.906	3000.5
1013.122	2974.5
1013.338	2968.5
1013.554	2965.5
1013.77	3007.5
1013.986	2973.5
1014.202	2993.5
1014.418	3065.5
1014.634	3093.5
1014.849	3094.5
1015.065	3112.5
1015.281	3131.5
1015.496	3098.5
1015.712	3046.5
1015.928	3015.5
1016.143	2988.5
1016.359	2932.5
1016.574	2885.5
1016.79	2858.5
1017.005	2845.5
1017.22	2750.5
1017.435	2653.5
1017.651	2661.5
1017.866	2608.5
1018.081	2584.5
1018.296	2530.5
1018.511	2504.5
1018.726	2502.5
1018.941	2453.5
1019.156	2417.5
1019.371	2408.5
1019.586	2442.5
1019.801	2400.5
1020.015	2343.5
1020.23	2368.5
1020.445	2349.5
1020.659	2321.5
1020.874	2268.5
1021.088	2254.5
1021.303	2231.5
1021.517	2219.5
1021.732	2197.5
1021.946	2167.5
1022.16	2191.5
1022.375	2117.5
1022.589	2110.5
1022.803	2023.5
1023.017	2044.5
1023.231	1983.5
1023.445	1966.5
1023.659	1897.5
1023.873	1894.5
1024.087	1860.5
1024.301	1810.5
1024.515	1782.5
1024.729	1760.5
1024.942	1724.5
1025.156	1721.5
1025.37	1692.5
1025.583	1644.5
1025.797	1597.5
1026.01	1600.5
1026.224	1550.5
1026.437	1477.5
1026.651	1444.5
1026.864	1424.5
1027.077	1404.5
1027.291	1379.5
1027.504	1346.5
1027.717	1287.5
1027.93	1259.5
1028.143	1234.5
1028.356	1165.5
1028.569	1109.5
1028.782	1078.5
1028.995	-1.5
1029.208	-2.5
1029.421	-3.5
1029.634	-2.5
