Data from QEP037381__642__16-17-32-281.txt Node

Date: Mon Mar 14 16:17:32 EDT 2022
User: dcclab
Spectrometer: QEP03738
Trigger mode: 4
Integration Time (sec): 2.500000E0
Scans to average: 1
Electric dark correction enabled: true
Nonlinearity correction enabled: false
Boxcar width: 0
XAxis mode: Wavelengths
Number of Pixels in Spectrum: 1044
>>>>>Begin Spectral Data<<<<<
783.959	14.25
784.218	1.25
784.476	-3.75
784.734	-1.75
784.992	267.25
785.251	245.25
785.509	240.25
785.767	236.25
786.025	244.25
786.283	251.25
786.541	236.25
786.798	252.25
787.056	242.25
787.314	235.25
787.572	235.25
787.83	239.25
788.087	246.25
788.345	242.25
788.602	236.25
788.86	238.25
789.117	251.25
789.375	248.25
789.632	245.25
789.89	252.25
790.147	266.25
790.404	255.25
790.661	267.25
790.919	282.25
791.176	272.25
791.433	268.25
791.69	286.25
791.947	283.25
792.204	268.25
792.461	305.25
792.718	307.25
792.974	304.25
793.231	306.25
793.488	345.25
793.745	339.25
794.001	358.25
794.258	388.25
794.514	366.25
794.771	411.25
795.027	415.25
795.284	437.25
795.54	480.25
795.797	481.25
796.053	527.25
796.309	556.25
796.565	615.25
796.822	689.25
797.078	754.25
797.334	905.25
797.59	1055.25
797.846	1281.25
798.102	1701.25
798.358	2259.25
798.614	3208.25
798.869	4632.25
799.125	6860.25
799.381	10051.25
799.637	14180.25
799.892	19278.25
800.148	24923.25
800.403	30360.25
800.659	35171.25
800.914	38592.25
801.17	41183.25
801.425	42747.25
801.68	44047.25
801.936	45106.25
802.191	46178.25
802.446	47018.25
802.701	48168.25
802.957	49025.25
803.212	50182.25
803.467	51258.25
803.722	52209.25
803.977	53365.25
804.232	54331.25
804.486	55411.25
804.741	56625.25
804.996	57737.25
805.251	58891.25
805.505	59911.25
805.76	60760.25
806.015	61771.25
806.269	62579.25
806.524	63604.25
806.778	64054.25
807.033	64776.25
807.287	65248.25
807.541	66283.25
807.796	67273.25
808.05	68141.25
808.304	68830.25
808.558	69384.25
808.812	69771.25
809.066	70267.25
809.32	70661.25
809.574	71193.25
809.828	71823.25
810.082	72440.25
810.336	72982.25
810.59	73827.25
810.844	74791.25
811.097	75664.25
811.351	76756.25
811.605	78078.25
811.858	79256.25
812.112	80493.25
812.365	82045.25
812.619	83306.25
812.872	84605.25
813.126	85568.25
813.379	86912.25
813.632	88165.25
813.885	89310.25
814.139	90868.25
814.392	92017.25
814.645	93615.25
814.898	95365.25
815.151	97188.25
815.404	98897.25
815.657	100565.25
815.91	101995.25
816.163	103278.25
816.416	104329.25
816.668	105050.25
816.921	105985.25
817.174	106324.25
817.426	106148.25
817.679	106364.25
817.931	106578.25
818.184	106623.25
818.436	106521.25
818.689	106828.25
818.941	106889.25
819.194	107420.25
819.446	107670.25
819.698	108146.25
819.95	108499.25
820.202	108956.25
820.455	109597.25
820.707	109687.25
820.959	109807.25
821.211	109933.25
821.462	110104.25
821.714	109509.25
821.966	109245.25
822.218	109018.25
822.47	108138.25
822.722	107941.25
822.973	107363.25
823.225	107282.25
823.476	107393.25
823.728	107342.25
823.979	107103.25
824.231	107378.25
824.482	107308.25
824.734	107339.25
824.985	107437.25
825.236	107646.25
825.487	107226.25
825.739	106867.25
825.99	106581.25
826.241	106629.25
826.492	105678.25
826.743	105140.25
826.994	104940.25
827.245	104664.25
827.496	104189.25
827.747	103898.25
827.997	104408.25
828.248	104424.25
828.499	104471.25
828.75	104502.25
829	104340.25
829.251	104152.25
829.501	104121.25
829.752	103378.25
830.002	103587.25
830.253	102712.25
830.503	102252.25
830.753	101454.25
831.004	100893.25
831.254	100514.25
831.504	100327.25
831.754	100112.25
832.004	99921.25
832.254	99894.25
832.504	100505.25
832.754	100460.25
833.004	100202.25
833.254	100151.25
833.504	99877.25
833.754	99683.25
834.003	99373.25
834.253	99221.25
834.503	98372.25
834.752	97856.25
835.002	97047.25
835.252	96734.25
835.501	96370.25
835.75	96155.25
836	95950.25
836.249	96027.25
836.499	95903.25
836.748	95809.25
836.997	95934.25
837.246	96006.25
837.495	96404.25
837.744	96596.25
837.993	97080.25
838.242	97375.25
838.491	97055.25
838.74	96316.25
838.989	94990.25
839.238	94499.25
839.487	93574.25
839.736	93331.25
839.984	92851.25
840.233	92194.25
840.482	91948.25
840.73	91786.25
840.979	91299.25
841.227	90899.25
841.476	90600.25
841.724	90417.25
841.972	90155.25
842.221	89962.25
842.469	89827.25
842.717	89276.25
842.965	88876.25
843.213	88830.25
843.461	88590.25
843.71	88099.25
843.958	87954.25
844.205	87469.25
844.453	87511.25
844.701	87510.25
844.949	87315.25
845.197	87119.25
845.445	87290.25
845.692	87284.25
845.94	87512.25
846.188	87072.25
846.435	87276.25
846.683	86867.25
846.93	86694.25
847.178	86225.25
847.425	85708.25
847.672	84735.25
847.92	84453.25
848.167	83386.25
848.414	82805.25
848.661	82115.25
848.908	81884.25
849.155	81496.25
849.402	81415.25
849.649	81609.25
849.896	81841.25
850.143	82326.25
850.39	82785.25
850.637	82655.25
850.884	82595.25
851.131	82435.25
851.377	82213.25
851.624	81789.25
851.87	81416.25
852.117	80996.25
852.364	80792.25
852.61	80766.25
852.856	80246.25
853.103	79637.25
853.349	79609.25
853.595	79269.25
853.842	78730.25
854.088	78728.25
854.334	78803.25
854.58	78569.25
854.826	78180.25
855.072	77597.25
855.318	76988.25
855.564	76353.25
855.81	75838.25
856.056	75174.25
856.302	74533.25
856.548	74074.25
856.793	73687.25
857.039	73150.25
857.285	73158.25
857.53	72992.25
857.776	73215.25
858.021	73285.25
858.267	73504.25
858.512	73730.25
858.758	73765.25
859.003	73999.25
859.248	73898.25
859.493	73798.25
859.739	73653.25
859.984	73208.25
860.229	73016.25
860.474	72469.25
860.719	71992.25
860.964	71858.25
861.209	71327.25
861.454	70762.25
861.699	70305.25
861.943	70116.25
862.188	69693.25
862.433	69443.25
862.678	69108.25
862.922	69160.25
863.167	68952.25
863.411	68800.25
863.656	68747.25
863.9	68638.25
864.145	68310.25
864.389	67916.25
864.634	67563.25
864.878	67552.25
865.122	67159.25
865.366	66912.25
865.61	66810.25
865.855	66471.25
866.099	66410.25
866.343	66410.25
866.587	66211.25
866.831	66122.25
867.074	66031.25
867.318	66106.25
867.562	66064.25
867.806	66097.25
868.05	65928.25
868.293	65978.25
868.537	65638.25
868.78	65321.25
869.024	64906.25
869.267	64415.25
869.511	63872.25
869.754	63393.25
869.998	63073.25
870.241	62413.25
870.484	62001.25
870.728	61509.25
870.971	61065.25
871.214	60988.25
871.457	60891.25
871.7	60811.25
871.943	60699.25
872.186	60825.25
872.429	60858.25
872.672	61028.25
872.915	60831.25
873.158	60726.25
873.4	60547.25
873.643	60405.25
873.886	60352.25
874.128	60132.25
874.371	59900.25
874.613	59702.25
874.856	59468.25
875.098	59133.25
875.341	59104.25
875.583	58921.25
875.825	58899.25
876.068	58605.25
876.31	58035.25
876.552	57802.25
876.794	57202.25
877.036	56506.25
877.278	56254.25
877.52	56002.25
877.762	55771.25
878.004	55707.25
878.246	55350.25
878.488	55591.25
878.73	55298.25
878.972	55275.25
879.213	55402.25
879.455	55308.25
879.697	55110.25
879.938	54920.25
880.18	54891.25
880.421	54550.25
880.663	54394.25
880.904	54372.25
881.145	54553.25
881.387	54634.25
881.628	54546.25
881.869	54259.25
882.11	54145.25
882.352	53931.25
882.593	53665.25
882.834	53689.25
883.075	53485.25
883.316	53316.25
883.557	53236.25
883.797	52886.25
884.038	52389.25
884.279	51958.25
884.52	51371.25
884.761	50979.25
885.001	50551.25
885.242	50140.25
885.482	49738.25
885.723	49579.25
885.963	49227.25
886.204	48959.25
886.444	48904.25
886.685	48707.25
886.925	48461.25
887.165	48440.25
887.405	48121.25
887.646	48063.25
887.886	47678.25
888.126	47555.25
888.366	47699.25
888.606	47751.25
888.846	47848.25
889.086	47927.25
889.326	48097.25
889.565	47923.25
889.805	47792.25
890.045	47659.25
890.285	47594.25
890.524	47414.25
890.764	47415.25
891.003	46902.25
891.243	46359.25
891.482	45903.25
891.722	45659.25
891.961	45219.25
892.201	44958.25
892.44	44759.25
892.679	44538.25
892.918	44493.25
893.158	44338.25
893.397	44268.25
893.636	44039.25
893.875	43847.25
894.114	43608.25
894.353	43501.25
894.592	43245.25
894.831	43175.25
895.069	42940.25
895.308	42683.25
895.547	42305.25
895.786	42241.25
896.024	42222.25
896.263	41881.25
896.501	41831.25
896.74	41980.25
896.978	41787.25
897.217	41948.25
897.455	41588.25
897.694	41497.25
897.932	41424.25
898.17	41147.25
898.408	41209.25
898.646	40948.25
898.885	40769.25
899.123	40466.25
899.361	40149.25
899.599	40082.25
899.837	39726.25
900.075	39634.25
900.312	39207.25
900.55	39019.25
900.788	38546.25
901.026	38168.25
901.263	38125.25
901.501	37669.25
901.739	37486.25
901.976	37225.25
902.214	37058.25
902.451	36956.25
902.689	36760.25
902.926	36861.25
903.163	36703.25
903.401	36819.25
903.638	36783.25
903.875	36581.25
904.112	36733.25
904.349	36658.25
904.586	36629.25
904.823	36496.25
905.06	36117.25
905.297	36045.25
905.534	35695.25
905.771	35380.25
906.008	35083.25
906.245	35051.25
906.481	34836.25
906.718	34685.25
906.955	34370.25
907.191	34350.25
907.428	33994.25
907.664	34085.25
907.901	33870.25
908.137	33663.25
908.374	33691.25
908.61	33458.25
908.846	33455.25
909.083	33200.25
909.319	33080.25
909.555	32791.25
909.791	32651.25
910.027	32336.25
910.263	32133.25
910.499	31770.25
910.735	31517.25
910.971	31303.25
911.207	31177.25
911.443	31061.25
911.678	30887.25
911.914	30692.25
912.15	30641.25
912.385	30596.25
912.621	30545.25
912.857	30422.25
913.092	30515.25
913.328	30428.25
913.563	30427.25
913.798	30418.25
914.034	30300.25
914.269	30218.25
914.504	30152.25
914.739	29994.25
914.975	29856.25
915.21	29648.25
915.445	29353.25
915.68	29188.25
915.915	28923.25
916.15	28554.25
916.384	28302.25
916.619	27833.25
916.854	27740.25
917.089	27684.25
917.324	27387.25
917.558	27184.25
917.793	26988.25
918.028	26932.25
918.262	26967.25
918.497	26934.25
918.731	26827.25
918.965	26711.25
919.2	26734.25
919.434	26689.25
919.668	26570.25
919.903	26580.25
920.137	26362.25
920.371	26248.25
920.605	26069.25
920.839	25912.25
921.073	25655.25
921.307	25427.25
921.541	25318.25
921.775	25118.25
922.009	25086.25
922.243	25020.25
922.476	24878.25
922.71	24939.25
922.944	24942.25
923.177	24818.25
923.411	24915.25
923.644	24739.25
923.878	24523.25
924.111	24532.25
924.345	24327.25
924.578	24434.25
924.811	24247.25
925.045	23942.25
925.278	23882.25
925.511	23666.25
925.744	23424.25
925.977	23332.25
926.21	23105.25
926.443	22883.25
926.676	22718.25
926.909	22507.25
927.142	22344.25
927.375	22229.25
927.608	22023.25
927.841	21908.25
928.073	21943.25
928.306	21782.25
928.539	21768.25
928.771	21730.25
929.004	21706.25
929.236	21719.25
929.469	21647.25
929.701	21640.25
929.933	21687.25
930.166	21580.25
930.398	21448.25
930.63	21593.25
930.862	21408.25
931.094	21397.25
931.327	21180.25
931.559	21141.25
931.791	20972.25
932.023	20838.25
932.255	20704.25
932.486	20453.25
932.718	20241.25
932.95	20184.25
933.182	20032.25
933.413	19911.25
933.645	19889.25
933.877	19796.25
934.108	19678.25
934.34	19474.25
934.571	19363.25
934.803	19437.25
935.034	19343.25
935.265	19228.25
935.497	19163.25
935.728	19085.25
935.959	19021.25
936.19	18986.25
936.422	18795.25
936.653	18684.25
936.884	18569.25
937.115	18421.25
937.346	18308.25
937.577	18189.25
937.807	18011.25
938.038	17953.25
938.269	17940.25
938.5	17938.25
938.73	17887.25
938.961	17829.25
939.192	17763.25
939.422	17698.25
939.653	17723.25
939.883	17706.25
940.114	17569.25
940.344	17599.25
940.574	17484.25
940.805	17338.25
941.035	17286.25
941.265	17133.25
941.495	16930.25
941.726	16833.25
941.956	16713.25
942.186	16586.25
942.416	16427.25
942.646	16429.25
942.876	16075.25
943.105	16042.25
943.335	15878.25
943.565	15744.25
943.795	15671.25
944.024	15563.25
944.254	15401.25
944.484	15173.25
944.713	15175.25
944.943	15135.25
945.172	15041.25
945.402	14987.25
945.631	14964.25
945.86	14898.25
946.09	14813.25
946.319	14790.25
946.548	14647.25
946.777	14670.25
947.006	14645.25
947.235	14553.25
947.465	14453.25
947.694	14363.25
947.922	14253.25
948.151	14144.25
948.38	13990.25
948.609	13836.25
948.838	13812.25
949.067	13645.25
949.295	13561.25
949.524	13513.25
949.752	13417.25
949.981	13288.25
950.21	13175.25
950.438	13095.25
950.666	12932.25
950.895	13016.25
951.123	12839.25
951.351	12711.25
951.58	12648.25
951.808	12656.25
952.036	12577.25
952.264	12493.25
952.492	12404.25
952.72	12315.25
952.948	12222.25
953.176	12164.25
953.404	12069.25
953.632	11903.25
953.86	11745.25
954.088	11731.25
954.315	11643.25
954.543	11652.25
954.771	11389.25
954.998	11429.25
955.226	11387.25
955.453	11330.25
955.681	11224.25
955.908	11236.25
956.135	11243.25
956.363	11213.25
956.59	11177.25
956.817	11119.25
957.045	11066.25
957.272	10992.25
957.499	10964.25
957.726	10876.25
957.953	10898.25
958.18	10868.25
958.407	10728.25
958.634	10688.25
958.861	10622.25
959.087	10613.25
959.314	10509.25
959.541	10448.25
959.767	10356.25
959.994	10237.25
960.221	10074.25
960.447	10006.25
960.674	9939.25
960.9	9849.25
961.127	9865.25
961.353	9758.25
961.579	9715.25
961.806	9592.25
962.032	9566.25
962.258	9515.25
962.484	9469.25
962.71	9456.25
962.936	9409.25
963.162	9413.25
963.388	9388.25
963.614	9390.25
963.84	9349.25
964.066	9277.25
964.292	9266.25
964.518	9245.25
964.743	9174.25
964.969	9146.25
965.195	9092.25
965.42	9042.25
965.646	8972.25
965.871	8909.25
966.097	8846.25
966.322	8837.25
966.547	8872.25
966.773	8763.25
966.998	8677.25
967.223	8686.25
967.448	8608.25
967.674	8551.25
967.899	8514.25
968.124	8416.25
968.349	8394.25
968.574	8415.25
968.799	8292.25
969.024	8292.25
969.248	8171.25
969.473	8142.25
969.698	8130.25
969.923	8059.25
970.147	8091.25
970.372	7933.25
970.596	7951.25
970.821	7884.25
971.046	7888.25
971.27	7804.25
971.494	7714.25
971.719	7699.25
971.943	7575.25
972.167	7554.25
972.392	7502.25
972.616	7431.25
972.84	7427.25
973.064	7343.25
973.288	7286.25
973.512	7302.25
973.736	7284.25
973.96	7256.25
974.184	7235.25
974.408	7202.25
974.631	7185.25
974.855	7208.25
975.079	7117.25
975.303	7070.25
975.526	7061.25
975.75	7045.25
975.973	6974.25
976.197	6961.25
976.42	6934.25
976.644	6864.25
976.867	6831.25
977.09	6757.25
977.313	6750.25
977.537	6691.25
977.76	6602.25
977.983	6649.25
978.206	6619.25
978.429	6523.25
978.652	6495.25
978.875	6411.25
979.098	6416.25
979.321	6348.25
979.544	6307.25
979.767	6294.25
979.989	6225.25
980.212	6162.25
980.435	6209.25
980.657	6102.25
980.88	6112.25
981.102	6103.25
981.325	6054.25
981.547	5996.25
981.77	5977.25
981.992	5967.25
982.214	5916.25
982.437	5849.25
982.659	5863.25
982.881	5854.25
983.103	5802.25
983.325	5808.25
983.547	5760.25
983.769	5760.25
983.991	5703.25
984.213	5650.25
984.435	5623.25
984.657	5609.25
984.879	5608.25
985.1	5573.25
985.322	5511.25
985.544	5495.25
985.765	5487.25
985.987	5412.25
986.208	5359.25
986.43	5427.25
986.651	5373.25
986.873	5360.25
987.094	5333.25
987.315	5307.25
987.536	5215.25
987.758	5216.25
987.979	5177.25
988.2	5118.25
988.421	5096.25
988.642	5114.25
988.863	4990.25
989.084	5002.25
989.305	4984.25
989.526	4948.25
989.747	4928.25
989.967	4909.25
990.188	4862.25
990.409	4810.25
990.629	4804.25
990.85	4792.25
991.071	4749.25
991.291	4702.25
991.512	4704.25
991.732	4607.25
991.952	4640.25
992.173	4629.25
992.393	4624.25
992.613	4591.25
992.834	4587.25
993.054	4566.25
993.274	4538.25
993.494	4517.25
993.714	4543.25
993.934	4507.25
994.154	4501.25
994.374	4502.25
994.594	4427.25
994.813	4435.25
995.033	4392.25
995.253	4437.25
995.473	4365.25
995.692	4320.25
995.912	4315.25
996.131	4274.25
996.351	4270.25
996.57	4237.25
996.79	4120.25
997.009	4154.25
997.228	4097.25
997.448	4035.25
997.667	4024.25
997.886	4013.25
998.105	3963.25
998.325	3931.25
998.544	3902.25
998.763	3840.25
998.982	3854.25
999.201	3830.25
999.419	3779.25
999.638	3768.25
999.857	3795.25
1000.076	3817.25
1000.295	3720.25
1000.513	3744.25
1000.732	3726.25
1000.95	3735.25
1001.169	3716.25
1001.388	3681.25
1001.606	3663.25
1001.824	3635.25
1002.043	3598.25
1002.261	3607.25
1002.479	3605.25
1002.698	3605.25
1002.916	3530.25
1003.134	3588.25
1003.352	3506.25
1003.57	3548.25
1003.788	3492.25
1004.006	3503.25
1004.224	3494.25
1004.442	3447.25
1004.66	3447.25
1004.878	3447.25
1005.095	3397.25
1005.313	3405.25
1005.531	3395.25
1005.748	3389.25
1005.966	3450.25
1006.184	3330.25
1006.401	3382.25
1006.618	3312.25
1006.836	3268.25
1007.053	3295.25
1007.271	3288.25
1007.488	3253.25
1007.705	3282.25
1007.922	3244.25
1008.139	3215.25
1008.357	3237.25
1008.574	3220.25
1008.791	3252.25
1009.008	3294.25
1009.225	3276.25
1009.441	3294.25
1009.658	3304.25
1009.875	3318.25
1010.092	3262.25
1010.309	3243.25
1010.525	3264.25
1010.742	3184.25
1010.958	3172.25
1011.175	3129.25
1011.391	3104.25
1011.608	3071.25
1011.824	3024.25
1012.041	3011.25
1012.257	2989.25
1012.473	3017.25
1012.689	3015.25
1012.906	2937.25
1013.122	2941.25
1013.338	2916.25
1013.554	2932.25
1013.77	2931.25
1013.986	2923.25
1014.202	2965.25
1014.418	2972.25
1014.634	3018.25
1014.849	3055.25
1015.065	3082.25
1015.281	3105.25
1015.496	3083.25
1015.712	3029.25
1015.928	2996.25
1016.143	2973.25
1016.359	2897.25
1016.574	2847.25
1016.79	2770.25
1017.005	2800.25
1017.22	2697.25
1017.435	2665.25
1017.651	2650.25
1017.866	2589.25
1018.081	2536.25
1018.296	2505.25
1018.511	2464.25
1018.726	2448.25
1018.941	2435.25
1019.156	2368.25
1019.371	2397.25
1019.586	2375.25
1019.801	2363.25
1020.015	2353.25
1020.23	2349.25
1020.445	2317.25
1020.659	2316.25
1020.874	2299.25
1021.088	2212.25
1021.303	2182.25
1021.517	2188.25
1021.732	2157.25
1021.946	2116.25
1022.16	2130.25
1022.375	2074.25
1022.589	2044.25
1022.803	2035.25
1023.017	2023.25
1023.231	1990.25
1023.445	1930.25
1023.659	1881.25
1023.873	1867.25
1024.087	1819.25
1024.301	1779.25
1024.515	1789.25
1024.729	1752.25
1024.942	1708.25
1025.156	1729.25
1025.37	1662.25
1025.583	1645.25
1025.797	1591.25
1026.01	1573.25
1026.224	1535.25
1026.437	1495.25
1026.651	1472.25
1026.864	1405.25
1027.077	1393.25
1027.291	1367.25
1027.504	1327.25
1027.717	1276.25
1027.93	1258.25
1028.143	1232.25
1028.356	1195.25
1028.569	1103.25
1028.782	1041.25
1028.995	-1.75
1029.208	-2.75
1029.421	-2.75
1029.634	-2.75
