Data from QEP037381__687__16-21-37-286.txt Node

Date: Mon Mar 14 16:21:37 EDT 2022
User: dcclab
Spectrometer: QEP03738
Trigger mode: 4
Integration Time (sec): 2.500000E0
Scans to average: 1
Electric dark correction enabled: true
Nonlinearity correction enabled: false
Boxcar width: 0
XAxis mode: Wavelengths
Number of Pixels in Spectrum: 1044
>>>>>Begin Spectral Data<<<<<
783.959	12.88
784.218	0.88
784.476	-3.12
784.734	-2.12
784.992	230.88
785.251	218.88
785.509	216.88
785.767	212.88
786.025	217.88
786.283	212.88
786.541	209.88
786.798	228.88
787.056	209.88
787.314	195.88
787.572	216.88
787.83	209.88
788.087	221.88
788.345	210.88
788.602	214.88
788.86	219.88
789.117	222.88
789.375	202.88
789.632	203.88
789.89	204.88
790.147	225.88
790.404	219.88
790.661	224.88
790.919	243.88
791.176	228.88
791.433	238.88
791.69	245.88
791.947	241.88
792.204	231.88
792.461	255.88
792.718	252.88
792.974	256.88
793.231	264.88
793.488	304.88
793.745	283.88
794.001	297.88
794.258	324.88
794.514	324.88
794.771	328.88
795.027	355.88
795.284	359.88
795.54	388.88
795.797	400.88
796.053	426.88
796.309	467.88
796.565	518.88
796.822	557.88
797.078	639.88
797.334	726.88
797.59	860.88
797.846	1071.88
798.102	1396.88
798.358	1832.88
798.614	2560.88
798.869	3762.88
799.125	5525.88
799.381	8146.88
799.637	11573.88
799.892	15834.88
800.148	20458.88
800.403	25140.88
800.659	29004.88
800.914	31801.88
801.17	33962.88
801.425	35241.88
801.68	36288.88
801.936	36951.88
802.191	37907.88
802.446	38666.88
802.701	39448.88
802.957	40277.88
803.212	41098.88
803.467	41885.88
803.722	42698.88
803.977	43511.88
804.232	44318.88
804.486	45150.88
804.741	46019.88
804.996	47021.88
805.251	47746.88
805.505	48637.88
805.76	49545.88
806.015	50257.88
806.269	50868.88
806.524	51326.88
806.778	51965.88
807.033	52201.88
807.287	52869.88
807.541	53605.88
807.796	54583.88
808.05	55078.88
808.304	55685.88
808.558	55748.88
808.812	56097.88
809.066	56656.88
809.32	56994.88
809.574	57373.88
809.828	57677.88
810.082	57982.88
810.336	58571.88
810.59	59206.88
810.844	59782.88
811.097	60522.88
811.351	61459.88
811.605	62500.88
811.858	63301.88
812.112	64441.88
812.365	65360.88
812.619	66425.88
812.872	67306.88
813.126	68244.88
813.379	69039.88
813.632	70055.88
813.885	70957.88
814.139	71790.88
814.392	73005.88
814.645	74370.88
814.898	75644.88
815.151	77049.88
815.404	78483.88
815.657	79772.88
815.91	80905.88
816.163	81942.88
816.416	82391.88
816.668	83313.88
816.921	83516.88
817.174	84122.88
817.426	83996.88
817.679	83845.88
817.931	83904.88
818.184	83863.88
818.436	84043.88
818.689	84052.88
818.941	83891.88
819.194	84268.88
819.446	84808.88
819.698	85026.88
819.95	85301.88
820.202	85656.88
820.455	85903.88
820.707	86164.88
820.959	86257.88
821.211	86201.88
821.462	86208.88
821.714	85881.88
821.966	85611.88
822.218	85235.88
822.47	84749.88
822.722	84396.88
822.973	84192.88
823.225	83673.88
823.476	83552.88
823.728	83648.88
823.979	83567.88
824.231	83808.88
824.482	83757.88
824.734	83717.88
824.985	83734.88
825.236	83754.88
825.487	83447.88
825.739	83241.88
825.99	82890.88
826.241	82740.88
826.492	82115.88
826.743	81729.88
826.994	81538.88
827.245	81127.88
827.496	80947.88
827.747	80708.88
827.997	80832.88
828.248	80718.88
828.499	80879.88
828.75	80903.88
829	80850.88
829.251	80820.88
829.501	80527.88
829.752	80157.88
830.002	79901.88
830.253	79383.88
830.503	78930.88
830.753	78254.88
831.004	77901.88
831.254	77626.88
831.504	77568.88
831.754	77208.88
832.004	76861.88
832.254	77143.88
832.504	77073.88
832.754	77298.88
833.004	77166.88
833.254	77010.88
833.504	76679.88
833.754	76476.88
834.003	76108.88
834.253	75870.88
834.503	75523.88
834.752	74827.88
835.002	74598.88
835.252	74186.88
835.501	74012.88
835.75	73709.88
836	73742.88
836.249	73565.88
836.499	73471.88
836.748	73448.88
836.997	73479.88
837.246	73630.88
837.495	73824.88
837.744	74314.88
837.993	74638.88
838.242	75259.88
838.491	74991.88
838.74	73970.88
838.989	72958.88
839.238	72154.88
839.487	71492.88
839.736	70939.88
839.984	70767.88
840.233	70241.88
840.482	69877.88
840.73	69875.88
840.979	69542.88
841.227	69119.88
841.476	68869.88
841.724	68887.88
841.972	68561.88
842.221	68466.88
842.469	68162.88
842.717	67651.88
842.965	67498.88
843.213	67495.88
843.461	67004.88
843.71	66727.88
843.958	66390.88
844.205	66270.88
844.453	66088.88
844.701	66311.88
844.949	66014.88
845.197	65908.88
845.445	66079.88
845.692	66165.88
845.94	66226.88
846.188	66125.88
846.435	66032.88
846.683	65667.88
846.93	65456.88
847.178	65320.88
847.425	64535.88
847.672	64007.88
847.92	63465.88
848.167	63030.88
848.414	62448.88
848.661	61996.88
848.908	61560.88
849.155	61273.88
849.402	61642.88
849.649	61530.88
849.896	61696.88
850.143	62158.88
850.39	62510.88
850.637	62445.88
850.884	62319.88
851.131	61995.88
851.377	61873.88
851.624	61542.88
851.87	61531.88
852.117	61124.88
852.364	60612.88
852.61	60616.88
852.856	60373.88
853.103	60047.88
853.349	59776.88
853.595	59765.88
853.842	59170.88
854.088	59034.88
854.334	59076.88
854.58	58919.88
854.826	58632.88
855.072	58058.88
855.318	57767.88
855.564	57159.88
855.81	56633.88
856.056	56326.88
856.302	55716.88
856.548	55426.88
856.793	54924.88
857.039	54546.88
857.285	54623.88
857.53	54617.88
857.776	54520.88
858.021	54620.88
858.267	54954.88
858.512	55091.88
858.758	54982.88
859.003	54969.88
859.248	55028.88
859.493	54840.88
859.739	54664.88
859.984	54548.88
860.229	54476.88
860.474	53859.88
860.719	53587.88
860.964	53131.88
861.209	52979.88
861.454	52740.88
861.699	52146.88
861.943	51872.88
862.188	51758.88
862.433	51604.88
862.678	51153.88
862.922	51269.88
863.167	51110.88
863.411	50979.88
863.656	50856.88
863.9	50843.88
864.145	50536.88
864.389	50294.88
864.634	50130.88
864.878	49925.88
865.122	49854.88
865.366	49601.88
865.61	49519.88
865.855	49349.88
866.099	49214.88
866.343	49085.88
866.587	48924.88
866.831	49015.88
867.074	49003.88
867.318	48849.88
867.562	48914.88
867.806	48872.88
868.05	48743.88
868.293	48663.88
868.537	48472.88
868.78	48172.88
869.024	47957.88
869.267	47407.88
869.511	47085.88
869.754	46907.88
869.998	46502.88
870.241	45946.88
870.484	45759.88
870.728	45553.88
870.971	45011.88
871.214	44965.88
871.457	44831.88
871.7	44740.88
871.943	44853.88
872.186	44885.88
872.429	44804.88
872.672	44879.88
872.915	44719.88
873.158	44573.88
873.4	44583.88
873.643	44363.88
873.886	44402.88
874.128	44059.88
874.371	44023.88
874.613	43764.88
874.856	43613.88
875.098	43549.88
875.341	43295.88
875.583	43288.88
875.825	43028.88
876.068	42834.88
876.31	42557.88
876.552	42260.88
876.794	41916.88
877.036	41575.88
877.278	41220.88
877.52	41135.88
877.762	40891.88
878.004	40903.88
878.246	40552.88
878.488	40513.88
878.73	40456.88
878.972	40366.88
879.213	40442.88
879.455	40324.88
879.697	40304.88
879.938	40312.88
880.18	39949.88
880.421	39934.88
880.663	39837.88
880.904	39870.88
881.145	39965.88
881.387	40137.88
881.628	39989.88
881.869	39647.88
882.11	39506.88
882.352	39315.88
882.593	39004.88
882.834	38922.88
883.075	38878.88
883.316	38829.88
883.557	38684.88
883.797	38513.88
884.038	38182.88
884.279	37773.88
884.52	37340.88
884.761	36935.88
885.001	36687.88
885.242	36355.88
885.482	36115.88
885.723	35761.88
885.963	35720.88
886.204	35461.88
886.444	35397.88
886.685	35356.88
886.925	35170.88
887.165	35002.88
887.405	34821.88
887.646	34674.88
887.886	34535.88
888.126	34487.88
888.366	34562.88
888.606	34538.88
888.846	34546.88
889.086	34653.88
889.326	34577.88
889.565	34669.88
889.805	34573.88
890.045	34365.88
890.285	34183.88
890.524	34179.88
890.764	33987.88
891.003	33774.88
891.243	33376.88
891.482	33239.88
891.722	32953.88
891.961	32749.88
892.201	32512.88
892.44	32177.88
892.679	32166.88
892.918	31936.88
893.158	31893.88
893.397	31903.88
893.636	31664.88
893.875	31543.88
894.114	31394.88
894.353	31311.88
894.592	31174.88
894.831	30967.88
895.069	30829.88
895.308	30749.88
895.547	30498.88
895.786	30409.88
896.024	30237.88
896.263	30152.88
896.501	30122.88
896.74	30009.88
896.978	30056.88
897.217	30013.88
897.455	29905.88
897.694	29752.88
897.932	29591.88
898.17	29559.88
898.408	29482.88
898.646	29353.88
898.885	29247.88
899.123	28965.88
899.361	28881.88
899.599	28656.88
899.837	28514.88
900.075	28278.88
900.312	28020.88
900.55	27875.88
900.788	27518.88
901.026	27429.88
901.263	27127.88
901.501	26949.88
901.739	26782.88
901.976	26666.88
902.214	26470.88
902.451	26310.88
902.689	26317.88
902.926	26203.88
903.163	26220.88
903.401	26192.88
903.638	26328.88
903.875	26183.88
904.112	26169.88
904.349	26086.88
904.586	25961.88
904.823	25926.88
905.06	25751.88
905.297	25660.88
905.534	25384.88
905.771	25174.88
906.008	25017.88
906.245	24961.88
906.481	24720.88
906.718	24519.88
906.955	24335.88
907.191	24288.88
907.428	24134.88
907.664	24132.88
907.901	23936.88
908.137	23847.88
908.374	23790.88
908.61	23811.88
908.846	23707.88
909.083	23426.88
909.319	23417.88
909.555	23221.88
909.791	23038.88
910.027	22828.88
910.263	22611.88
910.499	22635.88
910.735	22257.88
910.971	22188.88
911.207	22087.88
911.443	21886.88
911.678	21766.88
911.914	21659.88
912.15	21779.88
912.385	21570.88
912.621	21708.88
912.857	21648.88
913.092	21535.88
913.328	21553.88
913.563	21429.88
913.798	21372.88
914.034	21354.88
914.269	21404.88
914.504	21273.88
914.739	21037.88
914.975	20939.88
915.21	20972.88
915.445	20764.88
915.68	20540.88
915.915	20350.88
916.15	20085.88
916.384	19918.88
916.619	19641.88
916.854	19509.88
917.089	19448.88
917.324	19384.88
917.558	19121.88
917.793	18980.88
918.028	18984.88
918.262	18937.88
918.497	18828.88
918.731	18871.88
918.965	18859.88
919.2	18691.88
919.434	18750.88
919.668	18751.88
919.903	18709.88
920.137	18617.88
920.371	18476.88
920.605	18301.88
920.839	18187.88
921.073	18057.88
921.307	17893.88
921.541	17874.88
921.775	17759.88
922.009	17630.88
922.243	17478.88
922.476	17638.88
922.71	17500.88
922.944	17462.88
923.177	17463.88
923.411	17484.88
923.644	17392.88
923.878	17304.88
924.111	17201.88
924.345	17085.88
924.578	17072.88
924.811	16935.88
925.045	16849.88
925.278	16710.88
925.511	16609.88
925.744	16472.88
925.977	16336.88
926.21	16263.88
926.443	16135.88
926.676	15911.88
926.909	15846.88
927.142	15700.88
927.375	15605.88
927.608	15466.88
927.841	15422.88
928.073	15385.88
928.306	15246.88
928.539	15333.88
928.771	15231.88
929.004	15297.88
929.236	15220.88
929.469	15223.88
929.701	15302.88
929.933	15174.88
930.166	15165.88
930.398	15150.88
930.63	15083.88
930.862	15068.88
931.094	14913.88
931.327	14883.88
931.559	14795.88
931.791	14720.88
932.023	14558.88
932.255	14485.88
932.486	14319.88
932.718	14244.88
932.95	14160.88
933.182	14111.88
933.413	13981.88
933.645	13823.88
933.877	13858.88
934.108	13896.88
934.34	13721.88
934.571	13710.88
934.803	13659.88
935.034	13600.88
935.265	13562.88
935.497	13422.88
935.728	13398.88
935.959	13329.88
936.19	13238.88
936.422	13161.88
936.653	13028.88
936.884	13039.88
937.115	12962.88
937.346	12896.88
937.577	12770.88
937.807	12614.88
938.038	12642.88
938.269	12647.88
938.5	12596.88
938.73	12591.88
938.961	12493.88
939.192	12523.88
939.422	12499.88
939.653	12416.88
939.883	12424.88
940.114	12403.88
940.344	12315.88
940.574	12297.88
940.805	12244.88
941.035	12089.88
941.265	12098.88
941.495	11967.88
941.726	11832.88
941.956	11770.88
942.186	11717.88
942.416	11578.88
942.646	11487.88
942.876	11330.88
943.105	11298.88
943.335	11120.88
943.565	11105.88
943.795	11062.88
944.024	10971.88
944.254	10843.88
944.484	10779.88
944.713	10715.88
944.943	10662.88
945.172	10673.88
945.402	10590.88
945.631	10544.88
945.86	10464.88
946.09	10416.88
946.319	10457.88
946.548	10402.88
946.777	10397.88
947.006	10297.88
947.235	10282.88
947.465	10197.88
947.694	10097.88
947.922	10041.88
948.151	10029.88
948.38	9930.88
948.609	9749.88
948.838	9737.88
949.067	9669.88
949.295	9630.88
949.524	9548.88
949.752	9452.88
949.981	9465.88
950.21	9371.88
950.438	9360.88
950.666	9299.88
950.895	9187.88
951.123	9039.88
951.351	8986.88
951.58	9001.88
951.808	8974.88
952.036	8866.88
952.264	8878.88
952.492	8820.88
952.72	8783.88
952.948	8644.88
953.176	8622.88
953.404	8513.88
953.632	8455.88
953.86	8443.88
954.088	8231.88
954.315	8312.88
954.543	8185.88
954.771	8203.88
954.998	8113.88
955.226	8045.88
955.453	8034.88
955.681	7943.88
955.908	7995.88
956.135	7979.88
956.363	7961.88
956.59	7872.88
956.817	7915.88
957.045	7875.88
957.272	7818.88
957.499	7756.88
957.726	7806.88
957.953	7726.88
958.18	7662.88
958.407	7604.88
958.634	7615.88
958.861	7555.88
959.087	7483.88
959.314	7409.88
959.541	7409.88
959.767	7340.88
959.994	7297.88
960.221	7219.88
960.447	7145.88
960.674	7070.88
960.9	7001.88
961.127	6936.88
961.353	6932.88
961.579	6876.88
961.806	6896.88
962.032	6785.88
962.258	6714.88
962.484	6694.88
962.71	6692.88
962.936	6721.88
963.162	6685.88
963.388	6645.88
963.614	6658.88
963.84	6588.88
964.066	6618.88
964.292	6579.88
964.518	6509.88
964.743	6458.88
964.969	6494.88
965.195	6417.88
965.42	6434.88
965.646	6373.88
965.871	6353.88
966.097	6353.88
966.322	6285.88
966.547	6249.88
966.773	6194.88
966.998	6131.88
967.223	6199.88
967.448	6142.88
967.674	6030.88
967.899	6058.88
968.124	6002.88
968.349	5973.88
968.574	5951.88
968.799	5889.88
969.024	5870.88
969.248	5841.88
969.473	5795.88
969.698	5774.88
969.923	5786.88
970.147	5734.88
970.372	5663.88
970.596	5602.88
970.821	5632.88
971.046	5568.88
971.27	5503.88
971.494	5484.88
971.719	5446.88
971.943	5411.88
972.167	5378.88
972.392	5354.88
972.616	5345.88
972.84	5256.88
973.064	5250.88
973.288	5218.88
973.512	5218.88
973.736	5153.88
973.96	5157.88
974.184	5122.88
974.408	5095.88
974.631	5135.88
974.855	5110.88
975.079	5036.88
975.303	5006.88
975.526	5046.88
975.75	5040.88
975.973	5019.88
976.197	4948.88
976.42	4952.88
976.644	4924.88
976.867	4882.88
977.09	4837.88
977.313	4860.88
977.537	4739.88
977.76	4739.88
977.983	4725.88
978.206	4687.88
978.429	4641.88
978.652	4625.88
978.875	4610.88
979.098	4598.88
979.321	4545.88
979.544	4505.88
979.767	4438.88
979.989	4420.88
980.212	4437.88
980.435	4394.88
980.657	4330.88
980.88	4386.88
981.102	4323.88
981.325	4251.88
981.547	4266.88
981.77	4256.88
981.992	4274.88
982.214	4184.88
982.437	4152.88
982.659	4199.88
982.881	4186.88
983.103	4114.88
983.325	4134.88
983.547	4087.88
983.769	4124.88
983.991	4100.88
984.213	4025.88
984.435	4014.88
984.657	4006.88
984.879	4002.88
985.1	3978.88
985.322	3976.88
985.544	3929.88
985.765	3881.88
985.987	3881.88
986.208	3876.88
986.43	3854.88
986.651	3782.88
986.873	3801.88
987.094	3807.88
987.315	3741.88
987.536	3722.88
987.758	3715.88
987.979	3665.88
988.2	3638.88
988.421	3610.88
988.642	3636.88
988.863	3556.88
989.084	3562.88
989.305	3541.88
989.526	3529.88
989.747	3535.88
989.967	3466.88
990.188	3495.88
990.409	3405.88
990.629	3438.88
990.85	3417.88
991.071	3394.88
991.291	3333.88
991.512	3315.88
991.732	3301.88
991.952	3308.88
992.173	3277.88
992.393	3302.88
992.613	3291.88
992.834	3284.88
993.054	3268.88
993.274	3226.88
993.494	3241.88
993.714	3253.88
993.934	3226.88
994.154	3205.88
994.374	3154.88
994.594	3175.88
994.813	3164.88
995.033	3157.88
995.253	3139.88
995.473	3186.88
995.692	3116.88
995.912	3086.88
996.131	3043.88
996.351	3051.88
996.57	2996.88
996.79	2995.88
997.009	2914.88
997.228	2952.88
997.448	2895.88
997.667	2879.88
997.886	2864.88
998.105	2833.88
998.325	2855.88
998.544	2766.88
998.763	2755.88
998.982	2784.88
999.201	2731.88
999.419	2713.88
999.638	2732.88
999.857	2694.88
1000.076	2709.88
1000.295	2670.88
1000.513	2686.88
1000.732	2634.88
1000.95	2627.88
1001.169	2623.88
1001.388	2604.88
1001.606	2621.88
1001.824	2639.88
1002.043	2573.88
1002.261	2551.88
1002.479	2585.88
1002.698	2570.88
1002.916	2547.88
1003.134	2565.88
1003.352	2509.88
1003.57	2490.88
1003.788	2559.88
1004.006	2487.88
1004.224	2534.88
1004.442	2493.88
1004.66	2470.88
1004.878	2505.88
1005.095	2466.88
1005.313	2474.88
1005.531	2441.88
1005.748	2407.88
1005.966	2499.88
1006.184	2425.88
1006.401	2428.88
1006.618	2391.88
1006.836	2415.88
1007.053	2406.88
1007.271	2416.88
1007.488	2379.88
1007.705	2410.88
1007.922	2401.88
1008.139	2390.88
1008.357	2394.88
1008.574	2361.88
1008.791	2409.88
1009.008	2435.88
1009.225	2444.88
1009.441	2477.88
1009.658	2510.88
1009.875	2509.88
1010.092	2517.88
1010.309	2511.88
1010.525	2467.88
1010.742	2409.88
1010.958	2386.88
1011.175	2387.88
1011.391	2376.88
1011.608	2342.88
1011.824	2340.88
1012.041	2314.88
1012.257	2281.88
1012.473	2275.88
1012.689	2235.88
1012.906	2246.88
1013.122	2211.88
1013.338	2218.88
1013.554	2230.88
1013.77	2233.88
1013.986	2237.88
1014.202	2271.88
1014.418	2310.88
1014.634	2377.88
1014.849	2352.88
1015.065	2424.88
1015.281	2445.88
1015.496	2399.88
1015.712	2393.88
1015.928	2347.88
1016.143	2330.88
1016.359	2298.88
1016.574	2223.88
1016.79	2174.88
1017.005	2157.88
1017.22	2063.88
1017.435	2021.88
1017.651	2008.88
1017.866	1958.88
1018.081	1905.88
1018.296	1902.88
1018.511	1888.88
1018.726	1884.88
1018.941	1863.88
1019.156	1843.88
1019.371	1826.88
1019.586	1845.88
1019.801	1840.88
1020.015	1773.88
1020.23	1805.88
1020.445	1755.88
1020.659	1743.88
1020.874	1732.88
1021.088	1690.88
1021.303	1657.88
1021.517	1663.88
1021.732	1603.88
1021.946	1601.88
1022.16	1595.88
1022.375	1547.88
1022.589	1547.88
1022.803	1502.88
1023.017	1486.88
1023.231	1437.88
1023.445	1484.88
1023.659	1378.88
1023.873	1387.88
1024.087	1339.88
1024.301	1322.88
1024.515	1331.88
1024.729	1304.88
1024.942	1266.88
1025.156	1288.88
1025.37	1232.88
1025.583	1194.88
1025.797	1181.88
1026.01	1175.88
1026.224	1148.88
1026.437	1103.88
1026.651	1094.88
1026.864	1032.88
1027.077	1056.88
1027.291	997.88
1027.504	975.88
1027.717	952.88
1027.93	910.88
1028.143	902.88
1028.356	881.88
1028.569	840.88
1028.782	784.88
1028.995	-1.12
1029.208	-3.12
1029.421	-3.12
1029.634	-1.12
