Data from QEP037381__683__16-21-27-286.txt Node

Date: Mon Mar 14 16:21:27 EDT 2022
User: dcclab
Spectrometer: QEP03738
Trigger mode: 4
Integration Time (sec): 2.500000E0
Scans to average: 1
Electric dark correction enabled: true
Nonlinearity correction enabled: false
Boxcar width: 0
XAxis mode: Wavelengths
Number of Pixels in Spectrum: 1044
>>>>>Begin Spectral Data<<<<<
783.959	14.75
784.218	2.75
784.476	-3.25
784.734	-4.25
784.992	252.75
785.251	232.75
785.509	223.75
785.767	215.75
786.025	232.75
786.283	237.75
786.541	232.75
786.798	231.75
787.056	229.75
787.314	203.75
787.572	226.75
787.83	222.75
788.087	228.75
788.345	219.75
788.602	230.75
788.86	234.75
789.117	225.75
789.375	218.75
789.632	235.75
789.89	225.75
790.147	233.75
790.404	235.75
790.661	243.75
790.919	255.75
791.176	246.75
791.433	253.75
791.69	267.75
791.947	258.75
792.204	259.75
792.461	271.75
792.718	280.75
792.974	284.75
793.231	283.75
793.488	325.75
793.745	309.75
794.001	317.75
794.258	356.75
794.514	340.75
794.771	371.75
795.027	380.75
795.284	387.75
795.54	404.75
795.797	426.75
796.053	491.75
796.309	510.75
796.565	567.75
796.822	612.75
797.078	696.75
797.334	828.75
797.59	964.75
797.846	1201.75
798.102	1556.75
798.358	2065.75
798.614	2895.75
798.869	4220.75
799.125	6221.75
799.381	9146.75
799.637	13021.75
799.892	17731.75
800.148	22910.75
800.403	28130.75
800.659	32391.75
800.914	35800.75
801.17	38255.75
801.425	39666.75
801.68	40766.75
801.936	41783.75
802.191	42686.75
802.446	43522.75
802.701	44411.75
802.957	45394.75
803.212	46320.75
803.467	47253.75
803.722	48152.75
803.977	49177.75
804.232	50092.75
804.486	50917.75
804.741	52020.75
804.996	52961.75
805.251	53800.75
805.505	54912.75
805.76	55575.75
806.015	56596.75
806.269	57043.75
806.524	57946.75
806.778	58457.75
807.033	58841.75
807.287	59596.75
807.541	60210.75
807.796	61388.75
808.05	61823.75
808.304	62465.75
808.558	62744.75
808.812	63340.75
809.066	63814.75
809.32	64027.75
809.574	64617.75
809.828	65042.75
810.082	65434.75
810.336	65975.75
810.59	66400.75
810.844	67377.75
811.097	68051.75
811.351	69123.75
811.605	70074.75
811.858	71349.75
812.112	72647.75
812.365	73423.75
812.619	74955.75
812.872	75739.75
813.126	76810.75
813.379	77712.75
813.632	78780.75
813.885	79804.75
814.139	81192.75
814.392	82138.75
814.645	83573.75
814.898	85023.75
815.151	86466.75
815.404	87999.75
815.657	89850.75
815.91	91049.75
816.163	92087.75
816.416	92813.75
816.668	93592.75
816.921	93781.75
817.174	94202.75
817.426	94376.75
817.679	94254.75
817.931	94179.75
818.184	94167.75
818.436	94081.75
818.689	94179.75
818.941	94479.75
819.194	94843.75
819.446	95008.75
819.698	95368.75
819.95	95963.75
820.202	96086.75
820.455	96393.75
820.707	96759.75
820.959	96821.75
821.211	96619.75
821.462	96475.75
821.714	96307.75
821.966	95989.75
822.218	95574.75
822.47	95060.75
822.722	94705.75
822.973	94093.75
823.225	94016.75
823.476	93956.75
823.728	93751.75
823.979	93627.75
824.231	93909.75
824.482	94007.75
824.734	93768.75
824.985	93767.75
825.236	93667.75
825.487	93479.75
825.739	93161.75
825.99	92973.75
826.241	92501.75
826.492	92208.75
826.743	91712.75
826.994	91146.75
827.245	90795.75
827.496	90680.75
827.747	90641.75
827.997	90515.75
828.248	90381.75
828.499	90440.75
828.75	90308.75
829	90474.75
829.251	90458.75
829.501	90316.75
829.752	89950.75
830.002	89265.75
830.253	88913.75
830.503	88182.75
830.753	87652.75
831.004	87090.75
831.254	86883.75
831.504	86581.75
831.754	86279.75
832.004	86192.75
832.254	86061.75
832.504	86235.75
832.754	86376.75
833.004	86112.75
833.254	85924.75
833.504	85791.75
833.754	85454.75
834.003	85324.75
834.253	84515.75
834.503	84188.75
834.752	83540.75
835.002	83402.75
835.252	82725.75
835.501	82482.75
835.75	82231.75
836	82207.75
836.249	82143.75
836.499	81930.75
836.748	82003.75
836.997	81734.75
837.246	82080.75
837.495	82314.75
837.744	82810.75
837.993	83228.75
838.242	83354.75
838.491	83180.75
838.74	82411.75
838.989	81149.75
839.238	80362.75
839.487	79666.75
839.736	79141.75
839.984	78776.75
840.233	78482.75
840.482	78003.75
840.73	77713.75
840.979	77414.75
841.227	77313.75
841.476	76847.75
841.724	76466.75
841.972	76466.75
842.221	76092.75
842.469	75812.75
842.717	75473.75
842.965	75268.75
843.213	74973.75
843.461	74830.75
843.71	74312.75
843.958	74006.75
844.205	73743.75
844.453	73669.75
844.701	73600.75
844.949	73328.75
845.197	73585.75
845.445	73434.75
845.692	73637.75
845.94	73474.75
846.188	73588.75
846.435	73535.75
846.683	73155.75
846.93	72910.75
847.178	72303.75
847.425	72021.75
847.672	71333.75
847.92	70601.75
848.167	69951.75
848.414	69440.75
848.661	68763.75
848.908	68427.75
849.155	68378.75
849.402	68246.75
849.649	68496.75
849.896	68494.75
850.143	68985.75
850.39	69301.75
850.637	69432.75
850.884	69097.75
851.131	69073.75
851.377	68861.75
851.624	68416.75
851.87	67935.75
852.117	67701.75
852.364	67138.75
852.61	67214.75
852.856	66946.75
853.103	66532.75
853.349	66544.75
853.595	66095.75
853.842	65553.75
854.088	65380.75
854.334	65479.75
854.58	65295.75
854.826	64842.75
855.072	64606.75
855.318	63955.75
855.564	63418.75
855.81	62932.75
856.056	62379.75
856.302	61705.75
856.548	61240.75
856.793	60857.75
857.039	60568.75
857.285	60458.75
857.53	60477.75
857.776	60530.75
858.021	60553.75
858.267	60972.75
858.512	60886.75
858.758	60901.75
859.003	61071.75
859.248	60986.75
859.493	60821.75
859.739	60756.75
859.984	60418.75
860.229	60010.75
860.474	59884.75
860.719	59410.75
860.964	58964.75
861.209	58579.75
861.454	58015.75
861.699	57926.75
861.943	57522.75
862.188	57399.75
862.433	57037.75
862.678	56778.75
862.922	56792.75
863.167	56537.75
863.411	56368.75
863.656	56417.75
863.9	56231.75
864.145	55865.75
864.389	55585.75
864.634	55426.75
864.878	55245.75
865.122	54948.75
865.366	54811.75
865.61	54631.75
865.855	54583.75
866.099	54267.75
866.343	54303.75
866.587	54133.75
866.831	54134.75
867.074	53882.75
867.318	53966.75
867.562	54199.75
867.806	53868.75
868.05	53984.75
868.293	53686.75
868.537	53375.75
868.78	53332.75
869.024	53078.75
869.267	52513.75
869.511	52051.75
869.754	51638.75
869.998	51351.75
870.241	50793.75
870.484	50464.75
870.728	50026.75
870.971	49911.75
871.214	49549.75
871.457	49334.75
871.7	49272.75
871.943	49436.75
872.186	49353.75
872.429	49550.75
872.672	49472.75
872.915	49272.75
873.158	49255.75
873.4	48985.75
873.643	49008.75
873.886	48911.75
874.128	48814.75
874.371	48453.75
874.613	48306.75
874.856	48193.75
875.098	48017.75
875.341	47866.75
875.583	47678.75
875.825	47534.75
876.068	47471.75
876.31	46859.75
876.552	46512.75
876.794	46296.75
877.036	45770.75
877.278	45418.75
877.52	45314.75
877.762	45008.75
878.004	45007.75
878.246	44712.75
878.488	44636.75
878.73	44660.75
878.972	44637.75
879.213	44671.75
879.455	44440.75
879.697	44491.75
879.938	44388.75
880.18	44107.75
880.421	43936.75
880.663	43849.75
880.904	43933.75
881.145	44125.75
881.387	43893.75
881.628	44004.75
881.869	43611.75
882.11	43514.75
882.352	43253.75
882.593	43134.75
882.834	43052.75
883.075	42885.75
883.316	42836.75
883.557	42652.75
883.797	42422.75
884.038	42217.75
884.279	41577.75
884.52	41212.75
884.761	40816.75
885.001	40400.75
885.242	40070.75
885.482	39859.75
885.723	39381.75
885.963	39375.75
886.204	39055.75
886.444	38892.75
886.685	38893.75
886.925	38669.75
887.165	38598.75
887.405	38215.75
887.646	38265.75
887.886	38006.75
888.126	38061.75
888.366	38006.75
888.606	37959.75
888.846	38078.75
889.086	38103.75
889.326	38244.75
889.565	38150.75
889.805	38052.75
890.045	37908.75
890.285	37760.75
890.524	37768.75
890.764	37569.75
891.003	37349.75
891.243	36800.75
891.482	36537.75
891.722	36304.75
891.961	35871.75
892.201	35779.75
892.44	35494.75
892.679	35498.75
892.918	35304.75
893.158	35094.75
893.397	34968.75
893.636	34945.75
893.875	34742.75
894.114	34739.75
894.353	34434.75
894.592	34353.75
894.831	34169.75
895.069	33945.75
895.308	33701.75
895.547	33449.75
895.786	33410.75
896.024	33342.75
896.263	33110.75
896.501	33159.75
896.74	33021.75
896.978	33121.75
897.217	33030.75
897.455	32877.75
897.694	32735.75
897.932	32588.75
898.17	32520.75
898.408	32417.75
898.646	32380.75
898.885	32175.75
899.123	31922.75
899.361	31647.75
899.599	31422.75
899.837	31357.75
900.075	31139.75
900.312	30895.75
900.55	30724.75
900.788	30307.75
901.026	30053.75
901.263	29848.75
901.501	29763.75
901.739	29343.75
901.976	29206.75
902.214	29124.75
902.451	29110.75
902.689	28835.75
902.926	28877.75
903.163	28842.75
903.401	28714.75
903.638	28951.75
903.875	28796.75
904.112	28748.75
904.349	28644.75
904.586	28609.75
904.823	28536.75
905.06	28295.75
905.297	28064.75
905.534	27966.75
905.771	27745.75
906.008	27507.75
906.245	27326.75
906.481	27111.75
906.718	26944.75
906.955	26831.75
907.191	26709.75
907.428	26747.75
907.664	26454.75
907.901	26411.75
908.137	26300.75
908.374	26343.75
908.61	26134.75
908.846	26140.75
909.083	25830.75
909.319	25808.75
909.555	25511.75
909.791	25390.75
910.027	25207.75
910.263	24944.75
910.499	24870.75
910.735	24567.75
910.971	24381.75
911.207	24251.75
911.443	24137.75
911.678	24036.75
911.914	23911.75
912.15	23857.75
912.385	23866.75
912.621	23739.75
912.857	23691.75
913.092	23755.75
913.328	23547.75
913.563	23588.75
913.798	23562.75
914.034	23509.75
914.269	23448.75
914.504	23397.75
914.739	23276.75
914.975	23096.75
915.21	22922.75
915.445	22793.75
915.68	22646.75
915.915	22448.75
916.15	22033.75
916.384	21882.75
916.619	21665.75
916.854	21503.75
917.089	21327.75
917.324	21162.75
917.558	21129.75
917.793	20812.75
918.028	20579.75
918.262	20728.75
918.497	20659.75
918.731	20734.75
918.965	20598.75
919.2	20689.75
919.434	20635.75
919.668	20589.75
919.903	20423.75
920.137	20358.75
920.371	20294.75
920.605	20110.75
920.839	19986.75
921.073	19858.75
921.307	19647.75
921.541	19612.75
921.775	19446.75
922.009	19259.75
922.243	19227.75
922.476	19222.75
922.71	19184.75
922.944	19239.75
923.177	19117.75
923.411	19121.75
923.644	19059.75
923.878	19005.75
924.111	18833.75
924.345	18745.75
924.578	18640.75
924.811	18648.75
925.045	18536.75
925.278	18291.75
925.511	18263.75
925.744	17985.75
925.977	18003.75
926.21	17717.75
926.443	17606.75
926.676	17551.75
926.909	17396.75
927.142	17232.75
927.375	17053.75
927.608	16892.75
927.841	16840.75
928.073	16787.75
928.306	16765.75
928.539	16743.75
928.771	16688.75
929.004	16580.75
929.236	16692.75
929.469	16564.75
929.701	16654.75
929.933	16673.75
930.166	16536.75
930.398	16647.75
930.63	16559.75
930.862	16475.75
931.094	16417.75
931.327	16240.75
931.559	16229.75
931.791	16113.75
932.023	15936.75
932.255	15884.75
932.486	15785.75
932.718	15626.75
932.95	15459.75
933.182	15427.75
933.413	15404.75
933.645	15199.75
933.877	15165.75
934.108	15122.75
934.34	15216.75
934.571	14992.75
934.803	14882.75
935.034	14929.75
935.265	14771.75
935.497	14736.75
935.728	14738.75
935.959	14560.75
936.19	14534.75
936.422	14411.75
936.653	14373.75
936.884	14289.75
937.115	14248.75
937.346	14131.75
937.577	13986.75
937.807	13936.75
938.038	13802.75
938.269	13836.75
938.5	13765.75
938.73	13710.75
938.961	13671.75
939.192	13701.75
939.422	13660.75
939.653	13617.75
939.883	13577.75
940.114	13572.75
940.344	13435.75
940.574	13404.75
940.805	13385.75
941.035	13274.75
941.265	13139.75
941.495	13040.75
941.726	12928.75
941.956	12878.75
942.186	12744.75
942.416	12586.75
942.646	12570.75
942.876	12471.75
943.105	12318.75
943.335	12222.75
943.565	12107.75
943.795	12017.75
944.024	11822.75
944.254	11839.75
944.484	11697.75
944.713	11759.75
944.943	11568.75
945.172	11586.75
945.402	11532.75
945.631	11545.75
945.86	11489.75
946.09	11410.75
946.319	11371.75
946.548	11346.75
946.777	11319.75
947.006	11316.75
947.235	11226.75
947.465	11156.75
947.694	11005.75
947.922	10935.75
948.151	10920.75
948.38	10810.75
948.609	10762.75
948.838	10614.75
949.067	10637.75
949.295	10473.75
949.524	10455.75
949.752	10260.75
949.981	10386.75
950.21	10181.75
950.438	10103.75
950.666	10036.75
950.895	9950.75
951.123	9914.75
951.351	9849.75
951.58	9828.75
951.808	9723.75
952.036	9648.75
952.264	9632.75
952.492	9580.75
952.72	9525.75
952.948	9475.75
953.176	9435.75
953.404	9263.75
953.632	9289.75
953.86	9155.75
954.088	9056.75
954.315	9026.75
954.543	8932.75
954.771	8898.75
954.998	8838.75
955.226	8769.75
955.453	8844.75
955.681	8703.75
955.908	8732.75
956.135	8702.75
956.363	8660.75
956.59	8602.75
956.817	8629.75
957.045	8584.75
957.272	8488.75
957.499	8490.75
957.726	8383.75
957.953	8398.75
958.18	8412.75
958.407	8325.75
958.634	8250.75
958.861	8254.75
959.087	8191.75
959.314	8120.75
959.541	8099.75
959.767	7900.75
959.994	7866.75
960.221	7859.75
960.447	7743.75
960.674	7665.75
960.9	7637.75
961.127	7570.75
961.353	7535.75
961.579	7503.75
961.806	7499.75
962.032	7321.75
962.258	7351.75
962.484	7310.75
962.71	7290.75
962.936	7307.75
963.162	7326.75
963.388	7223.75
963.614	7236.75
963.84	7203.75
964.066	7217.75
964.292	7195.75
964.518	7098.75
964.743	7068.75
964.969	7077.75
965.195	6979.75
965.42	6960.75
965.646	6960.75
965.871	6924.75
966.097	6870.75
966.322	6859.75
966.547	6813.75
966.773	6795.75
966.998	6705.75
967.223	6692.75
967.448	6668.75
967.674	6606.75
967.899	6537.75
968.124	6461.75
968.349	6526.75
968.574	6455.75
968.799	6410.75
969.024	6416.75
969.248	6350.75
969.473	6329.75
969.698	6273.75
969.923	6211.75
970.147	6223.75
970.372	6134.75
970.596	6096.75
970.821	6081.75
971.046	6019.75
971.27	6035.75
971.494	5931.75
971.719	5903.75
971.943	5826.75
972.167	5803.75
972.392	5772.75
972.616	5763.75
972.84	5703.75
973.064	5695.75
973.288	5718.75
973.512	5577.75
973.736	5591.75
973.96	5603.75
974.184	5558.75
974.408	5539.75
974.631	5520.75
974.855	5559.75
975.079	5449.75
975.303	5447.75
975.526	5461.75
975.75	5429.75
975.973	5422.75
976.197	5311.75
976.42	5303.75
976.644	5294.75
976.867	5280.75
977.09	5225.75
977.313	5210.75
977.537	5135.75
977.76	5130.75
977.983	5144.75
978.206	5061.75
978.429	5082.75
978.652	5006.75
978.875	5004.75
979.098	4934.75
979.321	4918.75
979.544	4818.75
979.767	4846.75
979.989	4766.75
980.212	4784.75
980.435	4722.75
980.657	4717.75
980.88	4711.75
981.102	4643.75
981.325	4660.75
981.547	4609.75
981.77	4548.75
981.992	4576.75
982.214	4560.75
982.437	4536.75
982.659	4482.75
982.881	4481.75
983.103	4473.75
983.325	4418.75
983.547	4450.75
983.769	4386.75
983.991	4390.75
984.213	4358.75
984.435	4375.75
984.657	4306.75
984.879	4298.75
985.1	4310.75
985.322	4263.75
985.544	4230.75
985.765	4198.75
985.987	4195.75
986.208	4170.75
986.43	4184.75
986.651	4138.75
986.873	4082.75
987.094	4108.75
987.315	4041.75
987.536	4024.75
987.758	4013.75
987.979	3968.75
988.2	3944.75
988.421	3934.75
988.642	3912.75
988.863	3849.75
989.084	3839.75
989.305	3813.75
989.526	3832.75
989.747	3784.75
989.967	3733.75
990.188	3704.75
990.409	3739.75
990.629	3684.75
990.85	3658.75
991.071	3592.75
991.291	3604.75
991.512	3591.75
991.732	3572.75
991.952	3550.75
992.173	3550.75
992.393	3547.75
992.613	3479.75
992.834	3528.75
993.054	3484.75
993.274	3481.75
993.494	3514.75
993.714	3474.75
993.934	3501.75
994.154	3434.75
994.374	3420.75
994.594	3394.75
994.813	3417.75
995.033	3355.75
995.253	3373.75
995.473	3378.75
995.692	3302.75
995.912	3319.75
996.131	3265.75
996.351	3282.75
996.57	3237.75
996.79	3193.75
997.009	3178.75
997.228	3131.75
997.448	3136.75
997.667	3108.75
997.886	3027.75
998.105	3059.75
998.325	3027.75
998.544	3046.75
998.763	2976.75
998.982	2965.75
999.201	2901.75
999.419	2955.75
999.638	2914.75
999.857	2871.75
1000.076	2951.75
1000.295	2848.75
1000.513	2869.75
1000.732	2870.75
1000.95	2815.75
1001.169	2843.75
1001.388	2836.75
1001.606	2809.75
1001.824	2818.75
1002.043	2777.75
1002.261	2815.75
1002.479	2780.75
1002.698	2765.75
1002.916	2767.75
1003.134	2731.75
1003.352	2735.75
1003.57	2710.75
1003.788	2702.75
1004.006	2643.75
1004.224	2701.75
1004.442	2688.75
1004.66	2670.75
1004.878	2640.75
1005.095	2623.75
1005.313	2693.75
1005.531	2646.75
1005.748	2592.75
1005.966	2712.75
1006.184	2635.75
1006.401	2628.75
1006.618	2575.75
1006.836	2558.75
1007.053	2567.75
1007.271	2594.75
1007.488	2568.75
1007.705	2549.75
1007.922	2577.75
1008.139	2534.75
1008.357	2532.75
1008.574	2562.75
1008.791	2552.75
1009.008	2622.75
1009.225	2585.75
1009.441	2643.75
1009.658	2659.75
1009.875	2635.75
1010.092	2637.75
1010.309	2614.75
1010.525	2621.75
1010.742	2553.75
1010.958	2532.75
1011.175	2541.75
1011.391	2492.75
1011.608	2506.75
1011.824	2483.75
1012.041	2435.75
1012.257	2447.75
1012.473	2371.75
1012.689	2378.75
1012.906	2378.75
1013.122	2365.75
1013.338	2329.75
1013.554	2343.75
1013.77	2379.75
1013.986	2369.75
1014.202	2403.75
1014.418	2442.75
1014.634	2503.75
1014.849	2555.75
1015.065	2562.75
1015.281	2535.75
1015.496	2551.75
1015.712	2529.75
1015.928	2478.75
1016.143	2394.75
1016.359	2403.75
1016.574	2357.75
1016.79	2273.75
1017.005	2230.75
1017.22	2192.75
1017.435	2104.75
1017.651	2114.75
1017.866	2081.75
1018.081	2028.75
1018.296	2004.75
1018.511	1978.75
1018.726	1984.75
1018.941	1953.75
1019.156	1945.75
1019.371	1944.75
1019.586	1943.75
1019.801	1939.75
1020.015	1905.75
1020.23	1920.75
1020.445	1890.75
1020.659	1862.75
1020.874	1826.75
1021.088	1779.75
1021.303	1776.75
1021.517	1747.75
1021.732	1701.75
1021.946	1679.75
1022.16	1690.75
1022.375	1653.75
1022.589	1616.75
1022.803	1598.75
1023.017	1593.75
1023.231	1580.75
1023.445	1548.75
1023.659	1457.75
1023.873	1440.75
1024.087	1427.75
1024.301	1428.75
1024.515	1391.75
1024.729	1365.75
1024.942	1329.75
1025.156	1345.75
1025.37	1322.75
1025.583	1284.75
1025.797	1254.75
1026.01	1237.75
1026.224	1220.75
1026.437	1169.75
1026.651	1116.75
1026.864	1096.75
1027.077	1100.75
1027.291	1079.75
1027.504	1067.75
1027.717	1017.75
1027.93	990.75
1028.143	968.75
1028.356	952.75
1028.569	868.75
1028.782	823.75
1028.995	-1.25
1029.208	-0.25
1029.421	-3.25
1029.634	-5.25
