Data from QEP037381__689__16-21-42-284.txt Node

Date: Mon Mar 14 16:21:42 EDT 2022
User: dcclab
Spectrometer: QEP03738
Trigger mode: 4
Integration Time (sec): 2.500000E0
Scans to average: 1
Electric dark correction enabled: true
Nonlinearity correction enabled: false
Boxcar width: 0
XAxis mode: Wavelengths
Number of Pixels in Spectrum: 1044
>>>>>Begin Spectral Data<<<<<
783.959	13.38
784.218	3.38
784.476	-1.62
784.734	-5.62
784.992	222.38
785.251	228.38
785.509	213.38
785.767	217.38
786.025	230.38
786.283	231.38
786.541	212.38
786.798	216.38
787.056	210.38
787.314	204.38
787.572	223.38
787.83	215.38
788.087	207.38
788.345	207.38
788.602	207.38
788.86	214.38
789.117	210.38
789.375	210.38
789.632	208.38
789.89	202.38
790.147	226.38
790.404	229.38
790.661	222.38
790.919	244.38
791.176	226.38
791.433	232.38
791.69	246.38
791.947	251.38
792.204	233.38
792.461	248.38
792.718	267.38
792.974	264.38
793.231	262.38
793.488	298.38
793.745	293.38
794.001	301.38
794.258	328.38
794.514	305.38
794.771	335.38
795.027	345.38
795.284	366.38
795.54	388.38
795.797	416.38
796.053	454.38
796.309	472.38
796.565	518.38
796.822	574.38
797.078	632.38
797.334	722.38
797.59	852.38
797.846	1075.38
798.102	1384.38
798.358	1815.38
798.614	2598.38
798.869	3750.38
799.125	5559.38
799.381	8164.38
799.637	11603.38
799.892	15838.38
800.148	20521.38
800.403	25062.38
800.659	28943.38
800.914	31824.38
801.17	33970.38
801.425	35297.38
801.68	36125.38
801.936	37019.38
802.191	37830.38
802.446	38697.38
802.701	39464.38
802.957	40117.38
803.212	41061.38
803.467	41838.38
803.722	42535.38
803.977	43442.38
804.232	44158.38
804.486	45244.38
804.741	46126.38
804.996	46877.38
805.251	47699.38
805.505	48802.38
805.76	49331.38
806.015	49962.38
806.269	50544.38
806.524	51286.38
806.778	51658.38
807.033	52090.38
807.287	52824.38
807.541	53412.38
807.796	54393.38
808.05	54871.38
808.304	55442.38
808.558	55568.38
808.812	55983.38
809.066	56466.38
809.32	56846.38
809.574	57136.38
809.828	57632.38
810.082	57788.38
810.336	58315.38
810.59	59088.38
810.844	59597.38
811.097	60382.38
811.351	61099.38
811.605	62213.38
811.858	63169.38
812.112	64029.38
812.365	65149.38
812.619	66225.38
812.872	67039.38
813.126	68164.38
813.379	69123.38
813.632	70001.38
813.885	70874.38
814.139	71852.38
814.392	72996.38
814.645	74055.38
814.898	75321.38
815.151	76747.38
815.404	78166.38
815.657	79458.38
815.91	80693.38
816.163	81618.38
816.416	82386.38
816.668	82899.38
816.921	83367.38
817.174	83598.38
817.426	83800.38
817.679	83787.38
817.931	83794.38
818.184	83570.38
818.436	83420.38
818.689	83423.38
818.941	83888.38
819.194	84195.38
819.446	84448.38
819.698	84684.38
819.95	85045.38
820.202	85400.38
820.455	85620.38
820.707	85827.38
820.959	85926.38
821.211	85950.38
821.462	85746.38
821.714	85490.38
821.966	85212.38
822.218	84752.38
822.47	84439.38
822.722	83986.38
822.973	83742.38
823.225	83490.38
823.476	83375.38
823.728	83274.38
823.979	83335.38
824.231	83481.38
824.482	83388.38
824.734	83274.38
824.985	83476.38
825.236	83364.38
825.487	83013.38
825.739	82843.38
825.99	82685.38
826.241	82247.38
826.492	81624.38
826.743	81490.38
826.994	81176.38
827.245	80829.38
827.496	80642.38
827.747	80433.38
827.997	80534.38
828.248	80466.38
828.499	80517.38
828.75	80504.38
829	80354.38
829.251	80269.38
829.501	80219.38
829.752	79925.38
830.002	79483.38
830.253	79127.38
830.503	78630.38
830.753	78244.38
831.004	77488.38
831.254	77196.38
831.504	76893.38
831.754	77002.38
832.004	76894.38
832.254	76855.38
832.504	76967.38
832.754	76946.38
833.004	76672.38
833.254	76604.38
833.504	76357.38
833.754	76219.38
834.003	75920.38
834.253	75508.38
834.503	75137.38
834.752	74754.38
835.002	74162.38
835.252	73878.38
835.501	73435.38
835.75	73553.38
836	73348.38
836.249	73277.38
836.499	73368.38
836.748	73204.38
836.997	73088.38
837.246	73251.38
837.495	73353.38
837.744	73908.38
837.993	74372.38
838.242	74757.38
838.491	74520.38
838.74	73762.38
838.989	72440.38
839.238	71769.38
839.487	71230.38
839.736	70686.38
839.984	70309.38
840.233	69930.38
840.482	69692.38
840.73	69209.38
840.979	69149.38
841.227	68896.38
841.476	68611.38
841.724	68433.38
841.972	68213.38
842.221	68056.38
842.469	67676.38
842.717	67351.38
842.965	67315.38
843.213	66940.38
843.461	66800.38
843.71	66359.38
843.958	66167.38
844.205	65979.38
844.453	65856.38
844.701	65610.38
844.949	65723.38
845.197	65604.38
845.445	65664.38
845.692	65866.38
845.94	65937.38
846.188	65952.38
846.435	65558.38
846.683	65414.38
846.93	65150.38
847.178	64931.38
847.425	64444.38
847.672	63680.38
847.92	63136.38
848.167	62542.38
848.414	62187.38
848.661	61577.38
848.908	61328.38
849.155	61183.38
849.402	61202.38
849.649	61304.38
849.896	61580.38
850.143	61911.38
850.39	62099.38
850.637	62177.38
850.884	61986.38
851.131	61928.38
851.377	61697.38
851.624	61479.38
851.87	61025.38
852.117	60689.38
852.364	60249.38
852.61	60295.38
852.856	60066.38
853.103	59700.38
853.349	59636.38
853.595	59423.38
853.842	58754.38
854.088	58666.38
854.334	58657.38
854.58	58644.38
854.826	58149.38
855.072	57849.38
855.318	57550.38
855.564	57015.38
855.81	56397.38
856.056	55781.38
856.302	55361.38
856.548	55073.38
856.793	54617.38
857.039	54520.38
857.285	54311.38
857.53	54233.38
857.776	54254.38
858.021	54415.38
858.267	54540.38
858.512	54796.38
858.758	54750.38
859.003	54934.38
859.248	54657.38
859.493	54516.38
859.739	54470.38
859.984	54197.38
860.229	54064.38
860.474	53591.38
860.719	53386.38
860.964	52816.38
861.209	52782.38
861.454	52238.38
861.699	51931.38
861.943	51682.38
862.188	51354.38
862.433	51291.38
862.678	51256.38
862.922	50908.38
863.167	50850.38
863.411	50738.38
863.656	50433.38
863.9	50632.38
864.145	50411.38
864.389	50055.38
864.634	49914.38
864.878	49688.38
865.122	49517.38
865.366	49261.38
865.61	49170.38
865.855	49016.38
866.099	48977.38
866.343	48900.38
866.587	48810.38
866.831	48650.38
867.074	48401.38
867.318	48548.38
867.562	48779.38
867.806	48578.38
868.05	48374.38
868.293	48354.38
868.537	48214.38
868.78	48070.38
869.024	47659.38
869.267	47269.38
869.511	46945.38
869.754	46487.38
869.998	46220.38
870.241	45816.38
870.484	45484.38
870.728	45265.38
870.971	44921.38
871.214	44703.38
871.457	44550.38
871.7	44461.38
871.943	44346.38
872.186	44370.38
872.429	44565.38
872.672	44554.38
872.915	44439.38
873.158	44295.38
873.4	44265.38
873.643	44081.38
873.886	44012.38
874.128	43780.38
874.371	43676.38
874.613	43582.38
874.856	43308.38
875.098	43213.38
875.341	42984.38
875.583	42934.38
875.825	42863.38
876.068	42553.38
876.31	42172.38
876.552	42053.38
876.794	41658.38
877.036	41261.38
877.278	40979.38
877.52	40723.38
877.762	40557.38
878.004	40491.38
878.246	40279.38
878.488	40287.38
878.73	40298.38
878.972	40190.38
879.213	40299.38
879.455	39987.38
879.697	40108.38
879.938	39845.38
880.18	39672.38
880.421	39654.38
880.663	39592.38
880.904	39671.38
881.145	39884.38
881.387	39788.38
881.628	39723.38
881.869	39465.38
882.11	39374.38
882.352	39000.38
882.593	38866.38
882.834	38822.38
883.075	38492.38
883.316	38503.38
883.557	38546.38
883.797	38144.38
884.038	37945.38
884.279	37587.38
884.52	37149.38
884.761	36676.38
885.001	36484.38
885.242	36038.38
885.482	35823.38
885.723	35527.38
885.963	35561.38
886.204	35328.38
886.444	35040.38
886.685	34862.38
886.925	34890.38
887.165	34672.38
887.405	34511.38
887.646	34383.38
887.886	34357.38
888.126	34331.38
888.366	34249.38
888.606	34286.38
888.846	34358.38
889.086	34491.38
889.326	34449.38
889.565	34364.38
889.805	34325.38
890.045	34215.38
890.285	34117.38
890.524	34044.38
890.764	33775.38
891.003	33438.38
891.243	33269.38
891.482	33020.38
891.722	32524.38
891.961	32394.38
892.201	32374.38
892.44	32066.38
892.679	31954.38
892.918	31724.38
893.158	31731.38
893.397	31628.38
893.636	31355.38
893.875	31344.38
894.114	31246.38
894.353	31095.38
894.592	31001.38
894.831	30936.38
895.069	30526.38
895.308	30485.38
895.547	30265.38
895.786	30255.38
896.024	30007.38
896.263	29910.38
896.501	29876.38
896.74	29878.38
896.978	29852.38
897.217	29749.38
897.455	29625.38
897.694	29454.38
897.932	29446.38
898.17	29269.38
898.408	29351.38
898.646	29191.38
898.885	29036.38
899.123	28797.38
899.361	28629.38
899.599	28388.38
899.837	28364.38
900.075	28023.38
900.312	27846.38
900.55	27599.38
900.788	27306.38
901.026	27190.38
901.263	26895.38
901.501	26750.38
901.739	26479.38
901.976	26524.38
902.214	26381.38
902.451	26191.38
902.689	26194.38
902.926	26175.38
903.163	26131.38
903.401	26050.38
903.638	26040.38
903.875	25974.38
904.112	25919.38
904.349	25982.38
904.586	25813.38
904.823	25725.38
905.06	25591.38
905.297	25462.38
905.534	25242.38
905.771	25052.38
906.008	24873.38
906.245	24675.38
906.481	24438.38
906.718	24387.38
906.955	24213.38
907.191	24130.38
907.428	24039.38
907.664	23941.38
907.901	23761.38
908.137	23757.38
908.374	23714.38
908.61	23647.38
908.846	23448.38
909.083	23368.38
909.319	23157.38
909.555	23049.38
909.791	22989.38
910.027	22756.38
910.263	22599.38
910.499	22337.38
910.735	22192.38
910.971	22125.38
911.207	21916.38
911.443	21766.38
911.678	21589.38
911.914	21529.38
912.15	21552.38
912.385	21439.38
912.621	21454.38
912.857	21397.38
913.092	21368.38
913.328	21301.38
913.563	21281.38
913.798	21278.38
914.034	21214.38
914.269	21234.38
914.504	21134.38
914.739	21034.38
914.975	20923.38
915.21	20714.38
915.445	20638.38
915.68	20379.38
915.915	20240.38
916.15	20007.38
916.384	19779.38
916.619	19620.38
916.854	19468.38
917.089	19264.38
917.324	19102.38
917.558	19090.38
917.793	18899.38
918.028	18832.38
918.262	18767.38
918.497	18803.38
918.731	18797.38
918.965	18702.38
919.2	18683.38
919.434	18628.38
919.668	18604.38
919.903	18634.38
920.137	18444.38
920.371	18314.38
920.605	18217.38
920.839	18078.38
921.073	17899.38
921.307	17820.38
921.541	17720.38
921.775	17594.38
922.009	17524.38
922.243	17452.38
922.476	17359.38
922.71	17475.38
922.944	17344.38
923.177	17252.38
923.411	17341.38
923.644	17209.38
923.878	17229.38
924.111	17198.38
924.345	16937.38
924.578	16921.38
924.811	16784.38
925.045	16694.38
925.278	16588.38
925.511	16507.38
925.744	16340.38
925.977	16260.38
926.21	16120.38
926.443	16039.38
926.676	15894.38
926.909	15773.38
927.142	15674.38
927.375	15502.38
927.608	15421.38
927.841	15305.38
928.073	15256.38
928.306	15241.38
928.539	15087.38
928.771	15133.38
929.004	15062.38
929.236	15071.38
929.469	15111.38
929.701	15143.38
929.933	15099.38
930.166	15047.38
930.398	14992.38
930.63	15015.38
930.862	14982.38
931.094	14780.38
931.327	14800.38
931.559	14624.38
931.791	14619.38
932.023	14505.38
932.255	14408.38
932.486	14194.38
932.718	14136.38
932.95	14025.38
933.182	13985.38
933.413	13979.38
933.645	13821.38
933.877	13726.38
934.108	13767.38
934.34	13706.38
934.571	13598.38
934.803	13565.38
935.034	13504.38
935.265	13474.38
935.497	13397.38
935.728	13319.38
935.959	13302.38
936.19	13226.38
936.422	13070.38
936.653	13054.38
936.884	12931.38
937.115	12868.38
937.346	12746.38
937.577	12735.38
937.807	12567.38
938.038	12598.38
938.269	12491.38
938.5	12500.38
938.73	12459.38
938.961	12406.38
939.192	12362.38
939.422	12388.38
939.653	12389.38
939.883	12329.38
940.114	12363.38
940.344	12255.38
940.574	12149.38
940.805	12086.38
941.035	12024.38
941.265	11951.38
941.495	11865.38
941.726	11634.38
941.956	11709.38
942.186	11626.38
942.416	11549.38
942.646	11434.38
942.876	11243.38
943.105	11244.38
943.335	11094.38
943.565	11000.38
943.795	10962.38
944.024	10872.38
944.254	10722.38
944.484	10682.38
944.713	10654.38
944.943	10637.38
945.172	10522.38
945.402	10390.38
945.631	10498.38
945.86	10416.38
946.09	10405.38
946.319	10352.38
946.548	10307.38
946.777	10271.38
947.006	10293.38
947.235	10199.38
947.465	10140.38
947.694	10053.38
947.922	9951.38
948.151	9947.38
948.38	9745.38
948.609	9776.38
948.838	9708.38
949.067	9603.38
949.295	9553.38
949.524	9537.38
949.752	9378.38
949.981	9425.38
950.21	9272.38
950.438	9235.38
950.666	9164.38
950.895	9129.38
951.123	9052.38
951.351	9003.38
951.58	8863.38
951.808	8849.38
952.036	8787.38
952.264	8749.38
952.492	8697.38
952.72	8632.38
952.948	8634.38
953.176	8586.38
953.404	8543.38
953.632	8410.38
953.86	8353.38
954.088	8324.38
954.315	8196.38
954.543	8154.38
954.771	8152.38
954.998	8054.38
955.226	8053.38
955.453	7997.38
955.681	7933.38
955.908	7930.38
956.135	7913.38
956.363	7917.38
956.59	7889.38
956.817	7851.38
957.045	7854.38
957.272	7786.38
957.499	7730.38
957.726	7721.38
957.953	7698.38
958.18	7671.38
958.407	7604.38
958.634	7557.38
958.861	7523.38
959.087	7458.38
959.314	7393.38
959.541	7323.38
959.767	7292.38
959.994	7167.38
960.221	7128.38
960.447	7075.38
960.674	7045.38
960.9	6972.38
961.127	6970.38
961.353	6950.38
961.579	6792.38
961.806	6815.38
962.032	6857.38
962.258	6668.38
962.484	6736.38
962.71	6715.38
962.936	6637.38
963.162	6626.38
963.388	6594.38
963.614	6611.38
963.84	6577.38
964.066	6567.38
964.292	6542.38
964.518	6540.38
964.743	6511.38
964.969	6443.38
965.195	6460.38
965.42	6389.38
965.646	6370.38
965.871	6318.38
966.097	6281.38
966.322	6249.38
966.547	6233.38
966.773	6212.38
966.998	6176.38
967.223	6150.38
967.448	6069.38
967.674	6017.38
967.899	6028.38
968.124	5981.38
968.349	5997.38
968.574	5910.38
968.799	5844.38
969.024	5822.38
969.248	5803.38
969.473	5757.38
969.698	5749.38
969.923	5701.38
970.147	5722.38
970.372	5622.38
970.596	5601.38
970.821	5601.38
971.046	5512.38
971.27	5473.38
971.494	5470.38
971.719	5400.38
971.943	5374.38
972.167	5304.38
972.392	5295.38
972.616	5289.38
972.84	5241.38
973.064	5194.38
973.288	5201.38
973.512	5158.38
973.736	5137.38
973.96	5168.38
974.184	5110.38
974.408	5056.38
974.631	5083.38
974.855	5109.38
975.079	5017.38
975.303	5048.38
975.526	4970.38
975.75	5007.38
975.973	4902.38
976.197	4904.38
976.42	4859.38
976.644	4860.38
976.867	4806.38
977.09	4779.38
977.313	4784.38
977.537	4759.38
977.76	4651.38
977.983	4681.38
978.206	4660.38
978.429	4649.38
978.652	4559.38
978.875	4577.38
979.098	4511.38
979.321	4526.38
979.544	4476.38
979.767	4439.38
979.989	4374.38
980.212	4359.38
980.435	4387.38
980.657	4322.38
980.88	4276.38
981.102	4305.38
981.325	4294.38
981.547	4247.38
981.77	4232.38
981.992	4262.38
982.214	4192.38
982.437	4172.38
982.659	4134.38
982.881	4142.38
983.103	4117.38
983.325	4144.38
983.547	4087.38
983.769	4040.38
983.991	4063.38
984.213	4056.38
984.435	4023.38
984.657	3964.38
984.879	3998.38
985.1	3923.38
985.322	3938.38
985.544	3936.38
985.765	3862.38
985.987	3860.38
986.208	3851.38
986.43	3840.38
986.651	3819.38
986.873	3798.38
987.094	3790.38
987.315	3678.38
987.536	3692.38
987.758	3653.38
987.979	3628.38
988.2	3634.38
988.421	3625.38
988.642	3616.38
988.863	3580.38
989.084	3514.38
989.305	3535.38
989.526	3510.38
989.747	3503.38
989.967	3459.38
990.188	3475.38
990.409	3413.38
990.629	3439.38
990.85	3396.38
991.071	3356.38
991.291	3363.38
991.512	3326.38
991.732	3279.38
991.952	3296.38
992.173	3251.38
992.393	3302.38
992.613	3216.38
992.834	3268.38
993.054	3245.38
993.274	3258.38
993.494	3199.38
993.714	3230.38
993.934	3193.38
994.154	3166.38
994.374	3214.38
994.594	3163.38
994.813	3127.38
995.033	3143.38
995.253	3114.38
995.473	3158.38
995.692	3059.38
995.912	3036.38
996.131	3018.38
996.351	3044.38
996.57	2960.38
996.79	2961.38
997.009	2934.38
997.228	2910.38
997.448	2871.38
997.667	2901.38
997.886	2841.38
998.105	2778.38
998.325	2792.38
998.544	2807.38
998.763	2763.38
998.982	2785.38
999.201	2744.38
999.419	2738.38
999.638	2707.38
999.857	2687.38
1000.076	2648.38
1000.295	2644.38
1000.513	2672.38
1000.732	2617.38
1000.95	2592.38
1001.169	2620.38
1001.388	2621.38
1001.606	2604.38
1001.824	2589.38
1002.043	2603.38
1002.261	2602.38
1002.479	2581.38
1002.698	2575.38
1002.916	2540.38
1003.134	2549.38
1003.352	2508.38
1003.57	2520.38
1003.788	2510.38
1004.006	2493.38
1004.224	2517.38
1004.442	2511.38
1004.66	2495.38
1004.878	2499.38
1005.095	2458.38
1005.313	2479.38
1005.531	2420.38
1005.748	2461.38
1005.966	2511.38
1006.184	2403.38
1006.401	2448.38
1006.618	2399.38
1006.836	2391.38
1007.053	2382.38
1007.271	2409.38
1007.488	2362.38
1007.705	2387.38
1007.922	2411.38
1008.139	2340.38
1008.357	2434.38
1008.574	2393.38
1008.791	2421.38
1009.008	2468.38
1009.225	2467.38
1009.441	2479.38
1009.658	2485.38
1009.875	2494.38
1010.092	2489.38
1010.309	2458.38
1010.525	2452.38
1010.742	2434.38
1010.958	2368.38
1011.175	2381.38
1011.391	2350.38
1011.608	2317.38
1011.824	2332.38
1012.041	2292.38
1012.257	2299.38
1012.473	2276.38
1012.689	2251.38
1012.906	2234.38
1013.122	2247.38
1013.338	2220.38
1013.554	2216.38
1013.77	2210.38
1013.986	2241.38
1014.202	2264.38
1014.418	2321.38
1014.634	2346.38
1014.849	2408.38
1015.065	2454.38
1015.281	2406.38
1015.496	2418.38
1015.712	2409.38
1015.928	2360.38
1016.143	2315.38
1016.359	2237.38
1016.574	2227.38
1016.79	2159.38
1017.005	2138.38
1017.22	2082.38
1017.435	2031.38
1017.651	1996.38
1017.866	1945.38
1018.081	1906.38
1018.296	1888.38
1018.511	1882.38
1018.726	1858.38
1018.941	1876.38
1019.156	1814.38
1019.371	1814.38
1019.586	1840.38
1019.801	1801.38
1020.015	1778.38
1020.23	1808.38
1020.445	1761.38
1020.659	1755.38
1020.874	1731.38
1021.088	1712.38
1021.303	1668.38
1021.517	1622.38
1021.732	1604.38
1021.946	1601.38
1022.16	1584.38
1022.375	1553.38
1022.589	1541.38
1022.803	1511.38
1023.017	1491.38
1023.231	1444.38
1023.445	1455.38
1023.659	1408.38
1023.873	1378.38
1024.087	1328.38
1024.301	1309.38
1024.515	1295.38
1024.729	1311.38
1024.942	1253.38
1025.156	1260.38
1025.37	1232.38
1025.583	1213.38
1025.797	1156.38
1026.01	1142.38
1026.224	1134.38
1026.437	1123.38
1026.651	1053.38
1026.864	1040.38
1027.077	1049.38
1027.291	994.38
1027.504	988.38
1027.717	942.38
1027.93	917.38
1028.143	912.38
1028.356	883.38
1028.569	832.38
1028.782	784.38
1028.995	-1.62
1029.208	-2.62
1029.421	-2.62
1029.634	-2.62
