Data from QEP037381__703__16-27-05-088.txt Node

Date: Mon Mar 14 16:27:05 EDT 2022
User: dcclab
Spectrometer: QEP03738
Trigger mode: 4
Integration Time (sec): 1.000000E1
Scans to average: 1
Electric dark correction enabled: true
Nonlinearity correction enabled: false
Boxcar width: 0
XAxis mode: Wavelengths
Number of Pixels in Spectrum: 1044
>>>>>Begin Spectral Data<<<<<
783.959	11.38
784.218	-0.62
784.476	1.38
784.734	-7.62
784.992	745.38
785.251	676.38
785.509	649.38
785.767	610.38
786.025	629.38
786.283	594.38
786.541	580.38
786.798	582.38
787.056	552.38
787.314	460.38
787.572	530.38
787.83	474.38
788.087	503.38
788.345	471.38
788.602	445.38
788.86	439.38
789.117	459.38
789.375	400.38
789.632	410.38
789.89	387.38
790.147	442.38
790.404	419.38
790.661	407.38
790.919	449.38
791.176	405.38
791.433	407.38
791.69	421.38
791.947	412.38
792.204	337.38
792.461	392.38
792.718	386.38
792.974	359.38
793.231	373.38
793.488	451.38
793.745	381.38
794.001	385.38
794.258	461.38
794.514	363.38
794.771	399.38
795.027	373.38
795.284	358.38
795.54	377.38
795.797	345.38
796.053	400.38
796.309	389.38
796.565	365.38
796.822	381.38
797.078	397.38
797.334	438.38
797.59	383.38
797.846	461.38
798.102	521.38
798.358	484.38
798.614	609.38
798.869	706.38
799.125	910.38
799.381	1096.38
799.637	1437.38
799.892	1771.38
800.148	2162.38
800.403	2498.38
800.659	2858.38
800.914	3039.38
801.17	3205.38
801.425	3284.38
801.68	3353.38
801.936	3366.38
802.191	3468.38
802.446	3544.38
802.701	3567.38
802.957	3608.38
803.212	3666.38
803.467	3708.38
803.722	3773.38
803.977	3867.38
804.232	3874.38
804.486	3937.38
804.741	4062.38
804.996	4148.38
805.251	4282.38
805.505	4296.38
805.76	4526.38
806.015	4585.38
806.269	4645.38
806.524	4779.38
806.778	4892.38
807.033	5122.38
807.287	5231.38
807.541	5309.38
807.796	5415.38
808.05	5431.38
808.304	5430.38
808.558	5345.38
808.812	5307.38
809.066	5137.38
809.32	5136.38
809.574	5093.38
809.828	4972.38
810.082	4930.38
810.336	4955.38
810.59	4956.38
810.844	5043.38
811.097	4966.38
811.351	5089.38
811.605	5151.38
811.858	5192.38
812.112	5208.38
812.365	5347.38
812.619	5376.38
812.872	5436.38
813.126	5575.38
813.379	5679.38
813.632	5757.38
813.885	5742.38
814.139	5693.38
814.392	5798.38
814.645	5786.38
814.898	5884.38
815.151	5865.38
815.404	5957.38
815.657	5978.38
815.91	6039.38
816.163	6069.38
816.416	6049.38
816.668	6054.38
816.921	6206.38
817.174	6142.38
817.426	6172.38
817.679	6128.38
817.931	6076.38
818.184	6172.38
818.436	6165.38
818.689	6225.38
818.941	6188.38
819.194	6292.38
819.446	6270.38
819.698	6363.38
819.95	6345.38
820.202	6352.38
820.455	6371.38
820.707	6470.38
820.959	6528.38
821.211	6401.38
821.462	6282.38
821.714	6175.38
821.966	5956.38
822.218	5887.38
822.47	5845.38
822.722	5759.38
822.973	5684.38
823.225	5668.38
823.476	5624.38
823.728	5602.38
823.979	5660.38
824.231	5554.38
824.482	5666.38
824.734	5627.38
824.985	5601.38
825.236	5639.38
825.487	5599.38
825.739	5553.38
825.99	5593.38
826.241	5564.38
826.492	5517.38
826.743	5533.38
826.994	5422.38
827.245	5349.38
827.496	5438.38
827.747	5353.38
827.997	5305.38
828.248	5302.38
828.499	5341.38
828.75	5338.38
829	5384.38
829.251	5290.38
829.501	5338.38
829.752	5377.38
830.002	5342.38
830.253	5379.38
830.503	5329.38
830.753	5284.38
831.004	5281.38
831.254	5242.38
831.504	5260.38
831.754	5181.38
832.004	5185.38
832.254	5221.38
832.504	5226.38
832.754	5267.38
833.004	5233.38
833.254	5323.38
833.504	5315.38
833.754	5371.38
834.003	5540.38
834.253	5548.38
834.503	5437.38
834.752	5372.38
835.002	5370.38
835.252	5271.38
835.501	5354.38
835.75	5464.38
836	5513.38
836.249	5532.38
836.499	5668.38
836.748	5941.38
836.997	6192.38
837.246	6893.38
837.495	7924.38
837.744	9912.38
837.993	12560.38
838.242	14776.38
838.491	14691.38
838.74	12519.38
838.989	9623.38
839.238	7659.38
839.487	6447.38
839.736	5842.38
839.984	5397.38
840.233	5162.38
840.482	4981.38
840.73	4889.38
840.979	4874.38
841.227	4750.38
841.476	4636.38
841.724	4519.38
841.972	4468.38
842.221	4399.38
842.469	4252.38
842.717	4236.38
842.965	4124.38
843.213	4130.38
843.461	4132.38
843.71	4133.38
843.958	4122.38
844.205	4091.38
844.453	4070.38
844.701	4096.38
844.949	4103.38
845.197	4211.38
845.445	4249.38
845.692	4269.38
845.94	4272.38
846.188	4279.38
846.435	4168.38
846.683	4285.38
846.93	4279.38
847.178	4254.38
847.425	4288.38
847.672	4220.38
847.92	4263.38
848.167	4319.38
848.414	4328.38
848.661	4438.38
848.908	4530.38
849.155	4775.38
849.402	5089.38
849.649	5541.38
849.896	6173.38
850.143	6820.38
850.39	7254.38
850.637	7253.38
850.884	6784.38
851.131	6262.38
851.377	6002.38
851.624	5881.38
851.87	5859.38
852.117	5888.38
852.364	6038.38
852.61	6300.38
852.856	6634.38
853.103	6994.38
853.349	7060.38
853.595	6980.38
853.842	6459.38
854.088	5852.38
854.334	5539.38
854.58	5089.38
854.826	4903.38
855.072	4907.38
855.318	4710.38
855.564	4644.38
855.81	4696.38
856.056	4931.38
856.302	4495.38
856.548	4473.38
856.793	4340.38
857.039	4156.38
857.285	4088.38
857.53	3968.38
857.776	3925.38
858.021	3936.38
858.267	3907.38
858.512	3917.38
858.758	3882.38
859.003	3856.38
859.248	3729.38
859.493	3687.38
859.739	3634.38
859.984	3627.38
860.229	3650.38
860.474	3589.38
860.719	3600.38
860.964	3533.38
861.209	3518.38
861.454	3470.38
861.699	3435.38
861.943	3384.38
862.188	3494.38
862.433	3483.38
862.678	3435.38
862.922	3410.38
863.167	3441.38
863.411	3475.38
863.656	3490.38
863.9	3446.38
864.145	3471.38
864.389	3502.38
864.634	3589.38
864.878	3598.38
865.122	3660.38
865.366	3649.38
865.61	3748.38
865.855	3817.38
866.099	3850.38
866.343	4001.38
866.587	4072.38
866.831	4215.38
867.074	4458.38
867.318	4566.38
867.562	4777.38
867.806	4785.38
868.05	4621.38
868.293	4415.38
868.537	4204.38
868.78	3989.38
869.024	3890.38
869.267	3731.38
869.511	3677.38
869.754	3686.38
869.998	3585.38
870.241	3531.38
870.484	3523.38
870.728	3499.38
870.971	3456.38
871.214	3417.38
871.457	3387.38
871.7	3418.38
871.943	3457.38
872.186	3440.38
872.429	3414.38
872.672	3518.38
872.915	3450.38
873.158	3434.38
873.4	3551.38
873.643	3512.38
873.886	3559.38
874.128	3508.38
874.371	3549.38
874.613	3574.38
874.856	3558.38
875.098	3618.38
875.341	3587.38
875.583	3706.38
875.825	3713.38
876.068	3758.38
876.31	3629.38
876.552	3578.38
876.794	3623.38
877.036	3555.38
877.278	3550.38
877.52	3675.38
877.762	3627.38
878.004	3669.38
878.246	3708.38
878.488	3774.38
878.73	3839.38
878.972	3839.38
879.213	3979.38
879.455	4053.38
879.697	4083.38
879.938	4186.38
880.18	4409.38
880.421	4728.38
880.663	5230.38
880.904	5947.38
881.145	6677.38
881.387	7156.38
881.628	6902.38
881.869	6109.38
882.11	5316.38
882.352	4776.38
882.593	4343.38
882.834	4119.38
883.075	4018.38
883.316	4018.38
883.557	4015.38
883.797	3944.38
884.038	3790.38
884.279	3671.38
884.52	3368.38
884.761	3190.38
885.001	3111.38
885.242	2978.38
885.482	3246.38
885.723	2911.38
885.963	2840.38
886.204	2785.38
886.444	2743.38
886.685	2707.38
886.925	2706.38
887.165	2757.38
887.405	2648.38
887.646	2635.38
887.886	2623.38
888.126	2680.38
888.366	2706.38
888.606	2667.38
888.846	2660.38
889.086	2666.38
889.326	2616.38
889.565	2699.38
889.805	2684.38
890.045	2744.38
890.285	2645.38
890.524	2686.38
890.764	2659.38
891.003	2684.38
891.243	2690.38
891.482	2735.38
891.722	2738.38
891.961	2698.38
892.201	2824.38
892.44	2761.38
892.679	2717.38
892.918	2821.38
893.158	2793.38
893.397	2868.38
893.636	2853.38
893.875	2933.38
894.114	2913.38
894.353	2946.38
894.592	3034.38
894.831	2995.38
895.069	2977.38
895.308	3033.38
895.547	3003.38
895.786	3011.38
896.024	3127.38
896.263	3190.38
896.501	3112.38
896.74	3149.38
896.978	3065.38
897.217	3041.38
897.455	3000.38
897.694	2864.38
897.932	2851.38
898.17	2759.38
898.408	2738.38
898.646	2735.38
898.885	2665.38
899.123	2668.38
899.361	2619.38
899.599	2528.38
899.837	2529.38
900.075	2486.38
900.312	2468.38
900.55	2372.38
900.788	2376.38
901.026	2291.38
901.263	2300.38
901.501	2238.38
901.739	2172.38
901.976	2148.38
902.214	2172.38
902.451	2087.38
902.689	2110.38
902.926	2028.38
903.163	2036.38
903.401	2028.38
903.638	2024.38
903.875	1949.38
904.112	1916.38
904.349	1942.38
904.586	1877.38
904.823	1929.38
905.06	1852.38
905.297	1862.38
905.534	1755.38
905.771	1761.38
906.008	1770.38
906.245	1740.38
906.481	1666.38
906.718	1656.38
906.955	1626.38
907.191	1630.38
907.428	1660.38
907.664	1635.38
907.901	1564.38
908.137	1581.38
908.374	1594.38
908.61	1597.38
908.846	1612.38
909.083	1522.38
909.319	1541.38
909.555	1496.38
909.791	1539.38
910.027	1533.38
910.263	1446.38
910.499	1492.38
910.735	1460.38
910.971	1436.38
911.207	1494.38
911.443	1431.38
911.678	1466.38
911.914	1420.38
912.15	1413.38
912.385	1437.38
912.621	1437.38
912.857	1413.38
913.092	1388.38
913.328	1437.38
913.563	1439.38
913.798	1438.38
914.034	1395.38
914.269	1397.38
914.504	1398.38
914.739	1474.38
914.975	1366.38
915.21	1386.38
915.445	1436.38
915.68	1397.38
915.915	1370.38
916.15	1387.38
916.384	1304.38
916.619	1345.38
916.854	1323.38
917.089	1372.38
917.324	1358.38
917.558	1313.38
917.793	1355.38
918.028	1315.38
918.262	1378.38
918.497	1314.38
918.731	1289.38
918.965	1233.38
919.2	1357.38
919.434	1296.38
919.668	1357.38
919.903	1323.38
920.137	1372.38
920.371	1238.38
920.605	1337.38
920.839	1284.38
921.073	1249.38
921.307	1313.38
921.541	1269.38
921.775	1281.38
922.009	1293.38
922.243	1260.38
922.476	1230.38
922.71	1312.38
922.944	1321.38
923.177	1202.38
923.411	1318.38
923.644	1316.38
923.878	1260.38
924.111	1277.38
924.345	1216.38
924.578	1232.38
924.811	1272.38
925.045	1316.38
925.278	1289.38
925.511	1285.38
925.744	1201.38
925.977	1251.38
926.21	1249.38
926.443	1263.38
926.676	1251.38
926.909	1259.38
927.142	1282.38
927.375	1200.38
927.608	1272.38
927.841	1213.38
928.073	1258.38
928.306	1193.38
928.539	1224.38
928.771	1252.38
929.004	1246.38
929.236	1244.38
929.469	1224.38
929.701	1237.38
929.933	1260.38
930.166	1175.38
930.398	1231.38
930.63	1269.38
930.862	1278.38
931.094	1220.38
931.327	1249.38
931.559	1218.38
931.791	1222.38
932.023	1240.38
932.255	1380.38
932.486	1178.38
932.718	1249.38
932.95	1176.38
933.182	1304.38
933.413	1282.38
933.645	1191.38
933.877	1277.38
934.108	1295.38
934.34	1212.38
934.571	1257.38
934.803	1210.38
935.034	1194.38
935.265	1223.38
935.497	1261.38
935.728	1175.38
935.959	1243.38
936.19	1248.38
936.422	1202.38
936.653	1149.38
936.884	1227.38
937.115	1153.38
937.346	1211.38
937.577	1186.38
937.807	1175.38
938.038	1158.38
938.269	1238.38
938.5	1140.38
938.73	1205.38
938.961	1163.38
939.192	1199.38
939.422	1185.38
939.653	1202.38
939.883	1242.38
940.114	1186.38
940.344	1165.38
940.574	1169.38
940.805	1118.38
941.035	1159.38
941.265	1162.38
941.495	1143.38
941.726	1084.38
941.956	1124.38
942.186	1116.38
942.416	1123.38
942.646	1034.38
942.876	1077.38
943.105	1135.38
943.335	1111.38
943.565	1097.38
943.795	1023.38
944.024	992.38
944.254	1010.38
944.484	1034.38
944.713	1063.38
944.943	989.38
945.172	1059.38
945.402	1076.38
945.631	1026.38
945.86	974.38
946.09	1018.38
946.319	1008.38
946.548	1037.38
946.777	1028.38
947.006	990.38
947.235	1042.38
947.465	1051.38
947.694	1001.38
947.922	985.38
948.151	957.38
948.38	937.38
948.609	946.38
948.838	962.38
949.067	977.38
949.295	1021.38
949.524	958.38
949.752	963.38
949.981	1037.38
950.21	902.38
950.438	994.38
950.666	1007.38
950.895	946.38
951.123	911.38
951.351	933.38
951.58	910.38
951.808	906.38
952.036	899.38
952.264	950.38
952.492	980.38
952.72	921.38
952.948	964.38
953.176	937.38
953.404	922.38
953.632	857.38
953.86	923.38
954.088	816.38
954.315	917.38
954.543	848.38
954.771	861.38
954.998	820.38
955.226	876.38
955.453	883.38
955.681	873.38
955.908	912.38
956.135	911.38
956.363	860.38
956.59	834.38
956.817	923.38
957.045	831.38
957.272	868.38
957.499	846.38
957.726	820.38
957.953	841.38
958.18	842.38
958.407	791.38
958.634	881.38
958.861	843.38
959.087	832.38
959.314	801.38
959.541	843.38
959.767	870.38
959.994	809.38
960.221	880.38
960.447	800.38
960.674	861.38
960.9	765.38
961.127	844.38
961.353	855.38
961.579	803.38
961.806	865.38
962.032	824.38
962.258	788.38
962.484	843.38
962.71	771.38
962.936	822.38
963.162	865.38
963.388	777.38
963.614	854.38
963.84	783.38
964.066	885.38
964.292	856.38
964.518	865.38
964.743	764.38
964.969	828.38
965.195	860.38
965.42	790.38
965.646	798.38
965.871	833.38
966.097	806.38
966.322	864.38
966.547	847.38
966.773	845.38
966.998	764.38
967.223	860.38
967.448	838.38
967.674	826.38
967.899	791.38
968.124	785.38
968.349	809.38
968.574	773.38
968.799	824.38
969.024	770.38
969.248	780.38
969.473	841.38
969.698	854.38
969.923	768.38
970.147	803.38
970.372	788.38
970.596	759.38
970.821	794.38
971.046	786.38
971.27	841.38
971.494	841.38
971.719	726.38
971.943	759.38
972.167	769.38
972.392	783.38
972.616	773.38
972.84	766.38
973.064	708.38
973.288	792.38
973.512	754.38
973.736	739.38
973.96	797.38
974.184	720.38
974.408	755.38
974.631	781.38
974.855	824.38
975.079	746.38
975.303	735.38
975.526	758.38
975.75	698.38
975.973	711.38
976.197	732.38
976.42	706.38
976.644	749.38
976.867	714.38
977.09	771.38
977.313	783.38
977.537	745.38
977.76	695.38
977.983	797.38
978.206	766.38
978.429	737.38
978.652	758.38
978.875	747.38
979.098	707.38
979.321	805.38
979.544	692.38
979.767	744.38
979.989	705.38
980.212	749.38
980.435	746.38
980.657	655.38
980.88	760.38
981.102	739.38
981.325	777.38
981.547	742.38
981.77	704.38
981.992	745.38
982.214	700.38
982.437	709.38
982.659	714.38
982.881	761.38
983.103	741.38
983.325	764.38
983.547	699.38
983.769	710.38
983.991	751.38
984.213	777.38
984.435	793.38
984.657	787.38
984.879	797.38
985.1	763.38
985.322	774.38
985.544	684.38
985.765	731.38
985.987	749.38
986.208	798.38
986.43	845.38
986.651	775.38
986.873	754.38
987.094	784.38
987.315	744.38
987.536	710.38
987.758	745.38
987.979	733.38
988.2	777.38
988.421	821.38
988.642	827.38
988.863	736.38
989.084	782.38
989.305	823.38
989.526	828.38
989.747	839.38
989.967	871.38
990.188	852.38
990.409	808.38
990.629	821.38
990.85	862.38
991.071	805.38
991.291	870.38
991.512	807.38
991.732	819.38
991.952	890.38
992.173	813.38
992.393	915.38
992.613	834.38
992.834	988.38
993.054	945.38
993.274	896.38
993.494	915.38
993.714	982.38
993.934	967.38
994.154	1010.38
994.374	1011.38
994.594	903.38
994.813	946.38
995.033	997.38
995.253	1016.38
995.473	1045.38
995.692	938.38
995.912	978.38
996.131	968.38
996.351	972.38
996.57	939.38
996.79	971.38
997.009	937.38
997.228	994.38
997.448	955.38
997.667	952.38
997.886	895.38
998.105	927.38
998.325	899.38
998.544	972.38
998.763	938.38
998.982	993.38
999.201	929.38
999.419	891.38
999.638	950.38
999.857	923.38
1000.076	1016.38
1000.295	950.38
1000.513	1069.38
1000.732	1023.38
1000.95	924.38
1001.169	1067.38
1001.388	1021.38
1001.606	1016.38
1001.824	1020.38
1002.043	1002.38
1002.261	1051.38
1002.479	1140.38
1002.698	1100.38
1002.916	1090.38
1003.134	1133.38
1003.352	1106.38
1003.57	1149.38
1003.788	1198.38
1004.006	1188.38
1004.224	1276.38
1004.442	1219.38
1004.66	1296.38
1004.878	1313.38
1005.095	1324.38
1005.313	1390.38
1005.531	1340.38
1005.748	1388.38
1005.966	1763.38
1006.184	1396.38
1006.401	1507.38
1006.618	1415.38
1006.836	1479.38
1007.053	1532.38
1007.271	1596.38
1007.488	1596.38
1007.705	1704.38
1007.922	1767.38
1008.139	1677.38
1008.357	1818.38
1008.574	1877.38
1008.791	2025.38
1009.008	2164.38
1009.225	2197.38
1009.441	2363.38
1009.658	2453.38
1009.875	2547.38
1010.092	2586.38
1010.309	2608.38
1010.525	2551.38
1010.742	2452.38
1010.958	2434.38
1011.175	2534.38
1011.391	2433.38
1011.608	2480.38
1011.824	2428.38
1012.041	2348.38
1012.257	2376.38
1012.473	2349.38
1012.689	2320.38
1012.906	2339.38
1013.122	2354.38
1013.338	2336.38
1013.554	2414.38
1013.77	2474.38
1013.986	2541.38
1014.202	2689.38
1014.418	2830.38
1014.634	3075.38
1014.849	3223.38
1015.065	3342.38
1015.281	3328.38
1015.496	3385.38
1015.712	3279.38
1015.928	3202.38
1016.143	3020.38
1016.359	2942.38
1016.574	2785.38
1016.79	2597.38
1017.005	2578.38
1017.22	2399.38
1017.435	2268.38
1017.651	2256.38
1017.866	2123.38
1018.081	2065.38
1018.296	1999.38
1018.511	2005.38
1018.726	2039.38
1018.941	1978.38
1019.156	1954.38
1019.371	1975.38
1019.586	2093.38
1019.801	2003.38
1020.015	2019.38
1020.23	2043.38
1020.445	2008.38
1020.659	1952.38
1020.874	1962.38
1021.088	1829.38
1021.303	1731.38
1021.517	1688.38
1021.732	1608.38
1021.946	1569.38
1022.16	1624.38
1022.375	1470.38
1022.589	1418.38
1022.803	1361.38
1023.017	1310.38
1023.231	1255.38
1023.445	1325.38
1023.659	1199.38
1023.873	1240.38
1024.087	1166.38
1024.301	1179.38
1024.515	1196.38
1024.729	1190.38
1024.942	1075.38
1025.156	1194.38
1025.37	1135.38
1025.583	1081.38
1025.797	1020.38
1026.01	1086.38
1026.224	1027.38
1026.437	1023.38
1026.651	963.38
1026.864	928.38
1027.077	1011.38
1027.291	944.38
1027.504	964.38
1027.717	887.38
1027.93	889.38
1028.143	879.38
1028.356	888.38
1028.569	846.38
1028.782	778.38
1028.995	1.38
1029.208	-0.62
1029.421	-0.62
1029.634	-4.62
